# Gnuplot File : kinetic energy of the system 
# 1st Column : time, 2nd : kinetic energy
0.0004	1.00188e-05
0.0008	3.62859e-05
0.0012	7.5642e-05
0.0016	0.000126179
0.002	0.000187
0.0024	0.000258555
0.0028	0.000342412
0.0032	0.000440373
0.0036	0.000553441
0.004	0.000681294
0.0044	0.000822584
0.0048	0.000975772
0.0052	0.00113992
0.0056	0.00131501
0.006	0.00150174
0.0064	0.00170098
0.0068	0.00191336
0.0072	0.00213894
0.0076	0.0023774
0.008	0.00262821
0.0084	0.00289094
0.0088	0.00316541
0.0092	0.00345167
0.0096	0.00374989
0.01	0.00406024
0.0104	0.00438277
0.0108	0.00471744
0.0112	0.00506414
0.0116	0.00542275
0.012	0.00579319
0.0124	0.0061754
0.0128	0.00656939
0.0132	0.00697517
0.0136	0.00739274
0.014	0.00782208
0.0144	0.00826316
0.0148	0.00871595
0.0152	0.0091804
0.0156	0.00965648
0.016	0.0101442
0.0164	0.0106435
0.0168	0.0111543
0.0172	0.0116767
0.0176	0.0122107
0.018	0.0127561
0.0184	0.0133131
0.0188	0.0138815
0.0192	0.0144614
0.0196	0.0150527
0.02	0.0156554
0.0204	0.0162695
0.0208	0.016895
0.0212	0.0175318
0.0216	0.01818
0.022	0.0188395
0.0224	0.0195103
0.0228	0.0201923
0.0232	0.0208856
0.0236	0.0215901
0.024	0.0223059
0.0244	0.0230328
0.0248	0.0237709
0.0252	0.0245201
0.0256	0.0252804
0.026	0.0260519
0.0264	0.0268344
0.0268	0.0276279
0.0272	0.0284325
0.0276	0.029248
0.028	0.0300745
0.0284	0.0309119
0.0288	0.0317603
0.0292	0.0326194
0.0296	0.0334894
0.03	0.0343702
0.0304	0.0352617
0.0308	0.0361639
0.0312	0.0370768
0.0316	0.0380003
0.032	0.0389343
0.0324	0.0398789
0.0328	0.0408339
0.0332	0.0417993
0.0336	0.0427751
0.034	0.0437611
0.0344	0.0447574
0.0348	0.0457637
0.0352	0.0467802
0.0356	0.0478066
0.036	0.048843
0.0364	0.0498891
0.0368	0.050945
0.0372	0.0520106
0.0376	0.0530856
0.038	0.0541701
0.0384	0.055264
0.0388	0.056367
0.0392	0.0574791
0.0396	0.0586002
0.04	0.0597302
0.0404	0.0608688
0.0408	0.062016
0.0412	0.0631716
0.0416	0.0643355
0.042	0.0655075
0.0424	0.0666874
0.0428	0.0678751
0.0432	0.0690705
0.0436	0.0702732
0.044	0.0714832
0.0444	0.0727003
0.0448	0.0739243
0.0452	0.0751549
0.0456	0.0763921
0.046	0.0776356
0.0464	0.0788852
0.0468	0.0801407
0.0472	0.0814019
0.0476	0.0826687
0.048	0.0839409
0.0484	0.0852181
0.0488	0.0865004
0.0492	0.0877875
0.0496	0.0890792
0.05	0.0903753
0.0504	0.0916757
0.0508	0.0929802
0.0512	0.0942887
0.0516	0.0956009
0.052	0.0969168
0.0524	0.0982363
0.0528	0.099559
0.0532	0.100885
0.0536	0.102214
0.054	0.103546
0.0544	0.104881
0.0548	0.106219
0.0552	0.107559
0.0556	0.108901
0.056	0.110246
0.0564	0.111593
0.0568	0.112943
0.0572	0.114294
0.0576	0.115647
0.058	0.117001
0.0584	0.118357
0.0588	0.119714
0.0592	0.121073
0.0596	0.122432
0.06	0.123793
0.0604	0.125154
0.0608	0.126515
0.0612	0.127878
0.0616	0.12924
0.062	0.130603
0.0624	0.131965
0.0628	0.133328
0.0632	0.13469
0.0636	0.136053
0.064	0.137414
0.0644	0.138775
0.0648	0.140136
0.0652	0.141496
0.0656	0.142855
0.066	0.144213
0.0664	0.145571
0.0668	0.146927
0.0672	0.148283
0.0676	0.149638
0.068	0.150992
0.0684	0.152345
0.0688	0.153697
0.0692	0.155048
0.0696	0.156398
0.07	0.157747
0.0704	0.159096
0.0708	0.160444
0.0712	0.161791
0.0716	0.163137
0.072	0.164482
0.0724	0.165827
0.0728	0.167171
0.0732	0.168515
0.0736	0.169858
0.074	0.1712
0.0744	0.172543
0.0748	0.173884
0.0752	0.175225
0.0756	0.176566
0.076	0.177907
0.0764	0.179247
0.0768	0.180587
0.0772	0.181927
0.0776	0.183267
0.078	0.184607
0.0784	0.185947
0.0788	0.187287
0.0792	0.188627
0.0796	0.189967
0.08	0.191308
0.0804	0.192648
0.0808	0.193989
0.0812	0.195331
0.0816	0.196673
0.082	0.198015
0.0824	0.199358
0.0828	0.200701
0.0832	0.202045
0.0836	0.20339
0.084	0.204736
0.0844	0.206082
0.0848	0.20743
0.0852	0.208778
0.0856	0.210127
0.086	0.211477
0.0864	0.212828
0.0868	0.214181
0.0872	0.215534
0.0876	0.216889
0.088	0.218245
0.0884	0.219602
0.0888	0.220961
0.0892	0.222321
0.0896	0.223682
0.09	0.225045
0.0904	0.226409
0.0908	0.227775
0.0912	0.229142
0.0916	0.230511
0.092	0.231882
0.0924	0.233254
0.0928	0.234627
0.0932	0.236003
0.0936	0.23738
0.094	0.238759
0.0944	0.240139
0.0948	0.241522
0.0952	0.242906
0.0956	0.244292
0.096	0.245679
0.0964	0.247069
0.0968	0.24846
0.0972	0.249853
0.0976	0.251248
0.098	0.252645
0.0984	0.254043
0.0988	0.255444
0.0992	0.256846
0.0996	0.25825
0.1	0.259656
0.1004	0.261064
0.1008	0.262474
0.1012	0.263886
0.1016	0.2653
0.102	0.266716
0.1024	0.268134
0.1028	0.269554
0.1032	0.270976
0.1036	0.2724
0.104	0.273827
0.1044	0.275256
0.1048	0.276687
0.1052	0.27812
0.1056	0.279556
0.106	0.280994
0.1064	0.282435
0.1068	0.283879
0.1072	0.285325
0.1076	0.286774
0.108	0.288227
0.1084	0.289682
0.1088	0.29114
0.1092	0.292602
0.1096	0.294067
0.11	0.295536
0.1104	0.297008
0.1108	0.298484
0.1112	0.299964
0.1116	0.301448
0.112	0.302937
0.1124	0.304429
0.1128	0.305926
0.1132	0.307428
0.1136	0.308934
0.114	0.310445
0.1144	0.311961
0.1148	0.313483
0.1152	0.315009
0.1156	0.316542
0.116	0.318079
0.1164	0.319623
0.1168	0.321172
0.1172	0.322727
0.1176	0.324288
0.118	0.325855
0.1184	0.327429
0.1188	0.329009
0.1192	0.330595
0.1196	0.332188
0.12	0.333788
0.1204	0.335394
0.1208	0.337007
0.1212	0.338628
0.1216	0.340255
0.122	0.341889
0.1224	0.343531
0.1228	0.345179
0.1232	0.346835
0.1236	0.348499
0.124	0.350169
0.1244	0.351847
0.1248	0.353533
0.1252	0.355226
0.1256	0.356927
0.126	0.358635
0.1264	0.360351
0.1268	0.362075
0.1272	0.363806
0.1276	0.365546
0.128	0.367293
0.1284	0.369048
0.1288	0.37081
0.1292	0.372581
0.1296	0.374359
0.13	0.376146
0.1304	0.37794
0.1308	0.379743
0.1312	0.381553
0.1316	0.383372
0.132	0.385198
0.1324	0.387033
0.1328	0.388876
0.1332	0.390727
0.1336	0.392586
0.134	0.394453
0.1344	0.396328
0.1348	0.398212
0.1352	0.400104
0.1356	0.402004
0.136	0.403912
0.1364	0.405829
0.1368	0.407754
0.1372	0.409687
0.1376	0.411629
0.138	0.413579
0.1384	0.415537
0.1388	0.417504
0.1392	0.419479
0.1396	0.421463
0.14	0.423456
0.1404	0.425456
0.1408	0.427466
0.1412	0.429484
0.1416	0.431511
0.142	0.433546
0.1424	0.43559
0.1428	0.437643
0.1432	0.439705
0.1436	0.441775
0.144	0.443855
0.1444	0.445943
0.1448	0.44804
0.1452	0.450147
0.1456	0.452262
0.146	0.454386
0.1464	0.45652
0.1468	0.458663
0.1472	0.460815
0.1476	0.462977
0.148	0.465148
0.1484	0.467328
0.1488	0.469518
0.1492	0.471717
0.1496	0.473926
0.15	0.476145
0.1504	0.478374
0.1508	0.480612
0.1512	0.482861
0.1516	0.485119
0.152	0.487387
0.1524	0.489666
0.1528	0.491954
0.1532	0.494253
0.1536	0.496562
0.154	0.498882
0.1544	0.501212
0.1548	0.503552
0.1552	0.505904
0.1556	0.508265
0.156	0.510638
0.1564	0.513021
0.1568	0.515415
0.1572	0.51782
0.1576	0.520236
0.158	0.522663
0.1584	0.525101
0.1588	0.52755
0.1592	0.53001
0.1596	0.532482
0.16	0.534965
0.1604	0.537459
0.1608	0.539964
0.1612	0.542481
0.1616	0.54501
0.162	0.54755
0.1624	0.550101
0.1628	0.552664
0.1632	0.555239
0.1636	0.557825
0.164	0.560423
0.1644	0.563033
0.1648	0.565655
0.1652	0.568288
0.1656	0.570932
0.166	0.573589
0.1664	0.576257
0.1668	0.578938
0.1672	0.581629
0.1676	0.584333
0.168	0.587049
0.1684	0.589776
0.1688	0.592515
0.1692	0.595265
0.1696	0.598028
0.17	0.600802
0.1704	0.603588
0.1708	0.606385
0.1712	0.609194
0.1716	0.612015
0.172	0.614847
0.1724	0.617691
0.1728	0.620546
0.1732	0.623413
0.1736	0.626291
0.174	0.62918
0.1744	0.632081
0.1748	0.634992
0.1752	0.637915
0.1756	0.64085
0.176	0.643795
0.1764	0.646751
0.1768	0.649718
0.1772	0.652695
0.1776	0.655684
0.178	0.658683
0.1784	0.661693
0.1788	0.664713
0.1792	0.667743
0.1796	0.670784
0.18	0.673836
0.1804	0.676897
0.1808	0.679968
0.1812	0.683049
0.1816	0.686141
0.182	0.689242
0.1824	0.692352
0.1828	0.695472
0.1832	0.698602
0.1836	0.701741
0.184	0.704889
0.1844	0.708046
0.1848	0.711213
0.1852	0.714388
0.1856	0.717573
0.186	0.720766
0.1864	0.723967
0.1868	0.727178
0.1872	0.730396
0.1876	0.733623
0.188	0.736858
0.1884	0.740102
0.1888	0.743353
0.1892	0.746612
0.1896	0.749879
0.19	0.753154
0.1904	0.756436
0.1908	0.759726
0.1912	0.763023
0.1916	0.766328
0.192	0.769639
0.1924	0.772958
0.1928	0.776284
0.1932	0.779616
0.1936	0.782955
0.194	0.786301
0.1944	0.789654
0.1948	0.793013
0.1952	0.796378
0.1956	0.799749
0.196	0.803127
0.1964	0.80651
0.1968	0.8099
0.1972	0.813295
0.1976	0.816696
0.198	0.820103
0.1984	0.823515
0.1988	0.826932
0.1992	0.830355
0.1996	0.833783
0.2	0.837217
0.2004	0.840655
0.2008	0.844098
0.2012	0.847546
0.2016	0.850998
0.202	0.854456
0.2024	0.857917
0.2028	0.861383
0.2032	0.864854
0.2036	0.868329
0.204	0.871807
0.2044	0.87529
0.2048	0.878777
0.2052	0.882267
0.2056	0.885761
0.206	0.889259
0.2064	0.89276
0.2068	0.896264
0.2072	0.899772
0.2076	0.903283
0.208	0.906797
0.2084	0.910314
0.2088	0.913834
0.2092	0.917357
0.2096	0.920882
0.21	0.92441
0.2104	0.927941
0.2108	0.931473
0.2112	0.935008
0.2116	0.938545
0.212	0.942085
0.2124	0.945626
0.2128	0.949169
0.2132	0.952714
0.2136	0.95626
0.214	0.959808
0.2144	0.963358
0.2148	0.966909
0.2152	0.970461
0.2156	0.974015
0.216	0.97757
0.2164	0.981126
0.2168	0.984682
0.2172	0.98824
0.2176	0.991799
0.218	0.995358
0.2184	0.998918
0.2188	1.00248
0.2192	1.00604
0.2196	1.0096
0.22	1.01316
0.2204	1.01673
0.2208	1.02029
0.2212	1.02385
0.2216	1.02742
0.222	1.03098
0.2224	1.03455
0.2228	1.03811
0.2232	1.04167
0.2236	1.04524
0.224	1.0488
0.2244	1.05237
0.2248	1.05593
0.2252	1.0595
0.2256	1.06306
0.226	1.06663
0.2264	1.07019
0.2268	1.07376
0.2272	1.07732
0.2276	1.08089
0.228	1.08445
0.2284	1.08802
0.2288	1.09158
0.2292	1.09515
0.2296	1.09871
0.23	1.10228
0.2304	1.10584
0.2308	1.10941
0.2312	1.11297
0.2316	1.11654
0.232	1.12011
0.2324	1.12367
0.2328	1.12724
0.2332	1.1308
0.2336	1.13437
0.234	1.13794
0.2344	1.14151
0.2348	1.14507
0.2352	1.14864
0.2356	1.15221
0.236	1.15578
0.2364	1.15935
0.2368	1.16292
0.2372	1.16649
0.2376	1.17006
0.238	1.17363
0.2384	1.17721
0.2388	1.18078
0.2392	1.18435
0.2396	1.18793
0.24	1.1915
0.2404	1.19508
0.2408	1.19866
0.2412	1.20223
0.2416	1.20581
0.242	1.20939
0.2424	1.21297
0.2428	1.21656
0.2432	1.22014
0.2436	1.22372
0.244	1.22731
0.2444	1.23089
0.2448	1.23448
0.2452	1.23807
0.2456	1.24166
0.246	1.24525
0.2464	1.24884
0.2468	1.25244
0.2472	1.25603
0.2476	1.25963
0.248	1.26322
0.2484	1.26682
0.2488	1.27042
0.2492	1.27402
0.2496	1.27763
0.25	1.28123
0.2504	1.28483
0.2508	1.28844
0.2512	1.29205
0.2516	1.29566
0.252	1.29927
0.2524	1.30288
0.2528	1.3065
0.2532	1.31011
0.2536	1.31373
0.254	1.31735
0.2544	1.32097
0.2548	1.32459
0.2552	1.32821
0.2556	1.33184
0.256	1.33546
0.2564	1.33909
0.2568	1.34272
0.2572	1.34635
0.2576	1.34998
0.258	1.35362
0.2584	1.35725
0.2588	1.36089
0.2592	1.36453
0.2596	1.36817
0.26	1.37182
0.2604	1.37546
0.2608	1.37911
0.2612	1.38276
0.2616	1.38641
0.262	1.39006
0.2624	1.39371
0.2628	1.39737
0.2632	1.40102
0.2636	1.40468
0.264	1.40834
0.2644	1.41201
0.2648	1.41567
0.2652	1.41934
0.2656	1.42301
0.266	1.42668
0.2664	1.43036
0.2668	1.43403
0.2672	1.43771
0.2676	1.44139
0.268	1.44507
0.2684	1.44876
0.2688	1.45245
0.2692	1.45614
0.2696	1.45983
0.27	1.46352
0.2704	1.46722
0.2708	1.47092
0.2712	1.47463
0.2716	1.47833
0.272	1.48204
0.2724	1.48575
0.2728	1.48947
0.2732	1.49319
0.2736	1.49691
0.274	1.50063
0.2744	1.50436
0.2748	1.50809
0.2752	1.51183
0.2756	1.51557
0.276	1.51931
0.2764	1.52305
0.2768	1.5268
0.2772	1.53055
0.2776	1.53431
0.278	1.53807
0.2784	1.54184
0.2788	1.54561
0.2792	1.54938
0.2796	1.55316
0.28	1.55694
0.2804	1.56072
0.2808	1.56452
0.2812	1.56831
0.2816	1.57211
0.282	1.57592
0.2824	1.57973
0.2828	1.58354
0.2832	1.58736
0.2836	1.59119
0.284	1.59502
0.2844	1.59886
0.2848	1.6027
0.2852	1.60654
0.2856	1.6104
0.286	1.61426
0.2864	1.61812
0.2868	1.62199
0.2872	1.62587
0.2876	1.62975
0.288	1.63364
0.2884	1.63754
0.2888	1.64144
0.2892	1.64535
0.2896	1.64927
0.29	1.65319
0.2904	1.65712
0.2908	1.66106
0.2912	1.665
0.2916	1.66895
0.292	1.67291
0.2924	1.67687
0.2928	1.68085
0.2932	1.68483
0.2936	1.68881
0.294	1.69281
0.2944	1.69681
0.2948	1.70082
0.2952	1.70484
0.2956	1.70887
0.296	1.71291
0.2964	1.71695
0.2968	1.721
0.2972	1.72506
0.2976	1.72913
0.298	1.73321
0.2984	1.7373
0.2988	1.74139
0.2992	1.7455
0.2996	1.74961
0.3	1.75373
0.3004	1.75786
0.3008	1.762
0.3012	1.76615
0.3016	1.77031
0.302	1.77448
0.3024	1.77866
0.3028	1.78284
0.3032	1.78704
0.3036	1.79125
0.304	1.79546
0.3044	1.79969
0.3048	1.80392
0.3052	1.80817
0.3056	1.81243
0.306	1.81669
0.3064	1.82097
0.3068	1.82525
0.3072	1.82955
0.3076	1.83386
0.308	1.83817
0.3084	1.8425
0.3088	1.84684
0.3092	1.85119
0.3096	1.85555
0.31	1.85992
0.3104	1.8643
0.3108	1.86869
0.3112	1.87309
0.3116	1.8775
0.312	1.88192
0.3124	1.88636
0.3128	1.8908
0.3132	1.89526
0.3136	1.89973
0.314	1.9042
0.3144	1.90869
0.3148	1.91319
0.3152	1.9177
0.3156	1.92222
0.316	1.92676
0.3164	1.9313
0.3168	1.93585
0.3172	1.94042
0.3176	1.945
0.318	1.94958
0.3184	1.95418
0.3188	1.95879
0.3192	1.96341
0.3196	1.96804
0.32	1.97269
0.3204	1.97734
0.3208	1.982
0.3212	1.98668
0.3216	1.99136
0.322	1.99606
0.3224	2.00077
0.3228	2.00548
0.3232	2.01021
0.3236	2.01495
0.324	2.0197
0.3244	2.02446
0.3248	2.02923
0.3252	2.03401
0.3256	2.03879
0.326	2.04359
0.3264	2.0484
0.3268	2.05322
0.3272	2.05805
0.3276	2.06289
0.328	2.06774
0.3284	2.0726
0.3288	2.07746
0.3292	2.08234
0.3296	2.08722
0.33	2.09212
0.3304	2.09702
0.3308	2.10193
0.3312	2.10685
0.3316	2.11178
0.332	2.11672
0.3324	2.12166
0.3328	2.12661
0.3332	2.13158
0.3336	2.13654
0.334	2.14152
0.3344	2.1465
0.3348	2.1515
0.3352	2.15649
0.3356	2.1615
0.336	2.16651
0.3364	2.17153
0.3368	2.17656
0.3372	2.18159
0.3376	2.18663
0.338	2.19167
0.3384	2.19673
0.3388	2.20178
0.3392	2.20685
0.3396	2.21192
0.34	2.21699
0.3404	2.22207
0.3408	2.22715
0.3412	2.23224
0.3416	2.23734
0.342	2.24244
0.3424	2.24755
0.3428	2.25265
0.3432	2.25777
0.3436	2.26289
0.344	2.26801
0.3444	2.27314
0.3448	2.27827
0.3452	2.2834
0.3456	2.28854
0.346	2.29368
0.3464	2.29883
0.3468	2.30398
0.3472	2.30913
0.3476	2.31429
0.348	2.31945
0.3484	2.32461
0.3488	2.32977
0.3492	2.33494
0.3496	2.34011
0.35	2.34528
0.3504	2.35046
0.3508	2.35564
0.3512	2.36082
0.3516	2.366
0.352	2.37118
0.3524	2.37637
0.3528	2.38156
0.3532	2.38675
0.3536	2.39194
0.354	2.39713
0.3544	2.40233
0.3548	2.40752
0.3552	2.41272
0.3556	2.41792
0.356	2.42312
0.3564	2.42832
0.3568	2.43352
0.3572	2.43873
0.3576	2.44393
0.358	2.44913
0.3584	2.45434
0.3588	2.45955
0.3592	2.46475
0.3596	2.46996
0.36	2.47517
0.3604	2.48037
0.3608	2.48558
0.3612	2.49079
0.3616	2.496
0.362	2.50121
0.3624	2.50641
0.3628	2.51162
0.3632	2.51683
0.3636	2.52204
0.364	2.52724
0.3644	2.53245
0.3648	2.53765
0.3652	2.54286
0.3656	2.54806
0.366	2.55326
0.3664	2.55846
0.3668	2.56366
0.3672	2.56886
0.3676	2.57406
0.368	2.57925
0.3684	2.58445
0.3688	2.58964
0.3692	2.59483
0.3696	2.60002
0.37	2.6052
0.3704	2.61039
0.3708	2.61557
0.3712	2.62075
0.3716	2.62593
0.372	2.6311
0.3724	2.63628
0.3728	2.64145
0.3732	2.64661
0.3736	2.65178
0.374	2.65694
0.3744	2.66209
0.3748	2.66725
0.3752	2.6724
0.3756	2.67755
0.376	2.68269
0.3764	2.68783
0.3768	2.69297
0.3772	2.6981
0.3776	2.70323
0.378	2.70835
0.3784	2.71347
0.3788	2.71858
0.3792	2.72369
0.3796	2.7288
0.38	2.7339
0.3804	2.739
0.3808	2.74409
0.3812	2.74917
0.3816	2.75425
0.382	2.75933
0.3824	2.7644
0.3828	2.76946
0.3832	2.77452
0.3836	2.77957
0.384	2.78462
0.3844	2.78966
0.3848	2.79469
0.3852	2.79972
0.3856	2.80474
0.386	2.80976
0.3864	2.81477
0.3868	2.81977
0.3872	2.82476
0.3876	2.82975
0.388	2.83473
0.3884	2.83971
0.3888	2.84467
0.3892	2.84963
0.3896	2.85458
0.39	2.85953
0.3904	2.86447
0.3908	2.8694
0.3912	2.87432
0.3916	2.87923
0.392	2.88414
0.3924	2.88903
0.3928	2.89392
0.3932	2.89881
0.3936	2.90368
0.394	2.90854
0.3944	2.9134
0.3948	2.91825
0.3952	2.92309
0.3956	2.92792
0.396	2.93274
0.3964	2.93755
0.3968	2.94236
0.3972	2.94715
0.3976	2.95194
0.398	2.95672
0.3984	2.96148
0.3988	2.96624
0.3992	2.97099
0.3996	2.97573
0.4	2.98046
0.4004	2.98518
0.4008	2.9899
0.4012	2.9946
0.4016	2.99929
0.402	3.00397
0.4024	3.00865
0.4028	3.01331
0.4032	3.01796
0.4036	3.02261
0.404	3.02724
0.4044	3.03186
0.4048	3.03648
0.4052	3.04108
0.4056	3.04567
0.406	3.05026
0.4064	3.05483
0.4068	3.05939
0.4072	3.06394
0.4076	3.06848
0.408	3.07301
0.4084	3.07753
0.4088	3.08204
0.4092	3.08654
0.4096	3.09103
0.41	3.0955
0.4104	3.09997
0.4108	3.10442
0.4112	3.10887
0.4116	3.1133
0.412	3.11772
0.4124	3.12213
0.4128	3.12653
0.4132	3.13092
0.4136	3.13529
0.414	3.13966
0.4144	3.14401
0.4148	3.14835
0.4152	3.15268
0.4156	3.157
0.416	3.16131
0.4164	3.1656
0.4168	3.16988
0.4172	3.17415
0.4176	3.17841
0.418	3.18266
0.4184	3.18689
0.4188	3.19111
0.4192	3.19532
0.4196	3.19952
0.42	3.2037
0.4204	3.20788
0.4208	3.21204
0.4212	3.21619
0.4216	3.22032
0.422	3.22444
0.4224	3.22855
0.4228	3.23265
0.4232	3.23674
0.4236	3.24081
0.424	3.24487
0.4244	3.24891
0.4248	3.25295
0.4252	3.25697
0.4256	3.26098
0.426	3.26497
0.4264	3.26895
0.4268	3.27292
0.4272	3.27688
0.4276	3.28083
0.428	3.28476
0.4284	3.28868
0.4288	3.29258
0.4292	3.29648
0.4296	3.30036
0.43	3.30423
0.4304	3.30808
0.4308	3.31192
0.4312	3.31576
0.4316	3.31957
0.432	3.32338
0.4324	3.32717
0.4328	3.33095
0.4332	3.33472
0.4336	3.33848
0.434	3.34223
0.4344	3.34596
0.4348	3.34968
0.4352	3.35339
0.4356	3.35709
0.436	3.36078
0.4364	3.36445
0.4368	3.36812
0.4372	3.37177
0.4376	3.37542
0.438	3.37905
0.4384	3.38267
0.4388	3.38628
0.4392	3.38988
0.4396	3.39347
0.44	3.39705
0.4404	3.40062
0.4408	3.40418
0.4412	3.40773
0.4416	3.41128
0.442	3.41481
0.4424	3.41833
0.4428	3.42185
0.4432	3.42535
0.4436	3.42885
0.444	3.43234
0.4444	3.43582
0.4448	3.43929
0.4452	3.44276
0.4456	3.44621
0.446	3.44966
0.4464	3.4531
0.4468	3.45654
0.4472	3.45997
0.4476	3.46339
0.448	3.46681
0.4484	3.47021
0.4488	3.47362
0.4492	3.47701
0.4496	3.4804
0.45	3.48379
0.4504	3.48717
0.4508	3.49054
0.4512	3.49391
0.4516	3.49728
0.452	3.50064
0.4524	3.504
0.4528	3.50735
0.4532	3.51069
0.4536	3.51404
0.454	3.51738
0.4544	3.52071
0.4548	3.52404
0.4552	3.52737
0.4556	3.5307
0.456	3.53402
0.4564	3.53734
0.4568	3.54066
0.4572	3.54397
0.4576	3.54728
0.458	3.55059
0.4584	3.5539
0.4588	3.5572
0.4592	3.56051
0.4596	3.56381
0.46	3.56711
0.4604	3.57041
0.4608	3.57371
0.4612	3.577
0.4616	3.5803
0.462	3.58359
0.4624	3.58688
0.4628	3.59018
0.4632	3.59347
0.4636	3.59676
0.464	3.60005
0.4644	3.60334
0.4648	3.60663
0.4652	3.60992
0.4656	3.61322
0.466	3.61651
0.4664	3.6198
0.4668	3.62309
0.4672	3.62638
0.4676	3.62967
0.468	3.63297
0.4684	3.63626
0.4688	3.63956
0.4692	3.64285
0.4696	3.64615
0.47	3.64945
0.4704	3.65274
0.4708	3.65605
0.4712	3.65935
0.4716	3.66265
0.472	3.66595
0.4724	3.66926
0.4728	3.67257
0.4732	3.67588
0.4736	3.67919
0.474	3.6825
0.4744	3.68582
0.4748	3.68913
0.4752	3.69245
0.4756	3.69577
0.476	3.6991
0.4764	3.70242
0.4768	3.70575
0.4772	3.70908
0.4776	3.71241
0.478	3.71575
0.4784	3.71909
0.4788	3.72243
0.4792	3.72577
0.4796	3.72912
0.48	3.73247
0.4804	3.73582
0.4808	3.73918
0.4812	3.74254
0.4816	3.7459
0.482	3.74926
0.4824	3.75263
0.4828	3.756
0.4832	3.75938
0.4836	3.76276
0.484	3.76614
0.4844	3.76953
0.4848	3.77292
0.4852	3.77631
0.4856	3.77971
0.486	3.78311
0.4864	3.78651
0.4868	3.78992
0.4872	3.79334
0.4876	3.79675
0.488	3.80017
0.4884	3.8036
0.4888	3.80703
0.4892	3.81046
0.4896	3.8139
0.49	3.81734
0.4904	3.82079
0.4908	3.82424
0.4912	3.8277
0.4916	3.83116
0.492	3.83462
0.4924	3.83809
0.4928	3.84157
0.4932	3.84505
0.4936	3.84853
0.494	3.85202
0.4944	3.85551
0.4948	3.85901
0.4952	3.86251
0.4956	3.86602
0.496	3.86954
0.4964	3.87305
0.4968	3.87658
0.4972	3.88011
0.4976	3.88364
0.498	3.88718
0.4984	3.89072
0.4988	3.89427
0.4992	3.89783
0.4996	3.90139
0.5	3.90495
0.5004	3.90852
0.5008	3.9121
0.5012	3.91568
0.5016	3.91926
0.502	3.92285
0.5024	3.92645
0.5028	3.93005
0.5032	3.93366
0.5036	3.93727
0.504	3.94089
0.5044	3.94452
0.5048	3.94815
0.5052	3.95178
0.5056	3.95542
0.506	3.95906
0.5064	3.96272
0.5068	3.96637
0.5072	3.97003
0.5076	3.9737
0.508	3.97737
0.5084	3.98105
0.5088	3.98473
0.5092	3.98842
0.5096	3.99212
0.51	3.99581
0.5104	3.99952
0.5108	4.00323
0.5112	4.00694
0.5116	4.01066
0.512	4.01439
0.5124	4.01812
0.5128	4.02186
0.5132	4.0256
0.5136	4.02935
0.514	4.0331
0.5144	4.03685
0.5148	4.04062
0.5152	4.04438
0.5156	4.04816
0.516	4.05194
0.5164	4.05572
0.5168	4.05951
0.5172	4.0633
0.5176	4.0671
0.518	4.0709
0.5184	4.07471
0.5188	4.07852
0.5192	4.08234
0.5196	4.08617
0.52	4.09
0.5204	4.09383
0.5208	4.09767
0.5212	4.10151
0.5216	4.10536
0.522	4.10922
0.5224	4.11308
0.5228	4.11694
0.5232	4.12081
0.5236	4.12468
