# Gnuplot File : kinetic energy of the system 
# 1st Column : time, 2nd : kinetic energy
0.0004	1.46891e-05
0.0008	5.16976e-05
0.0012	0.00010657
0.0016	0.000177563
0.002	0.000264261
0.0024	0.000367509
0.0028	0.00048902
0.0032	0.00063052
0.0036	0.000792862
0.004	0.000975626
0.0044	0.00117747
0.0048	0.00139693
0.0052	0.00163314
0.0056	0.00188611
0.006	0.00215652
0.0064	0.00244522
0.0068	0.00275277
0.0072	0.00307926
0.0076	0.00342435
0.008	0.00378756
0.0084	0.00416847
0.0088	0.00456691
0.0092	0.00498292
0.0096	0.00541663
0.01	0.00586821
0.0104	0.00633771
0.0108	0.00682509
0.0112	0.00733025
0.0116	0.00785306
0.012	0.00839344
0.0124	0.00895135
0.0128	0.00952678
0.0132	0.0101198
0.0136	0.0107302
0.014	0.0113582
0.0144	0.0120037
0.0148	0.0126666
0.0152	0.0133469
0.0156	0.0140446
0.016	0.0147596
0.0164	0.015492
0.0168	0.0162416
0.0172	0.0170085
0.0176	0.0177927
0.018	0.0185941
0.0184	0.0194128
0.0188	0.0202486
0.0192	0.0211016
0.0196	0.0219717
0.02	0.022859
0.0204	0.0237633
0.0208	0.0246847
0.0212	0.0256232
0.0216	0.0265788
0.022	0.0275513
0.0224	0.0285409
0.0228	0.0295474
0.0232	0.0305709
0.0236	0.0316113
0.024	0.0326686
0.0244	0.0337428
0.0248	0.0348339
0.0252	0.0359417
0.0256	0.0370664
0.026	0.0382079
0.0264	0.0393661
0.0268	0.040541
0.0272	0.0417327
0.0276	0.042941
0.028	0.0441659
0.0284	0.0454074
0.0288	0.0466655
0.0292	0.0479401
0.0296	0.0492312
0.03	0.0505387
0.0304	0.0518627
0.0308	0.053203
0.0312	0.0545596
0.0316	0.0559325
0.032	0.0573216
0.0324	0.0587269
0.0328	0.0601483
0.0332	0.0615857
0.0336	0.0630391
0.034	0.0645084
0.0344	0.0659936
0.0348	0.0674945
0.0352	0.0690112
0.0356	0.0705434
0.036	0.0720912
0.0364	0.0736545
0.0368	0.075233
0.0372	0.0768269
0.0376	0.0784359
0.038	0.0800599
0.0384	0.0816989
0.0388	0.0833527
0.0392	0.0850212
0.0396	0.0867043
0.04	0.0884017
0.0404	0.0901135
0.0408	0.0918395
0.0412	0.0935794
0.0416	0.0953332
0.042	0.0971007
0.0424	0.0988817
0.0428	0.100676
0.0432	0.102484
0.0436	0.104304
0.044	0.106137
0.0444	0.107983
0.0448	0.109842
0.0452	0.111712
0.0456	0.113595
0.046	0.11549
0.0464	0.117396
0.0468	0.119314
0.0472	0.121242
0.0476	0.123182
0.048	0.125133
0.0484	0.127095
0.0488	0.129067
0.0492	0.131049
0.0496	0.133042
0.05	0.135044
0.0504	0.137056
0.0508	0.139078
0.0512	0.141109
0.0516	0.14315
0.052	0.145199
0.0524	0.147258
0.0528	0.149325
0.0532	0.151401
0.0536	0.153486
0.054	0.155579
0.0544	0.157681
0.0548	0.15979
0.0552	0.161908
0.0556	0.164033
0.056	0.166166
0.0564	0.168307
0.0568	0.170455
0.0572	0.172611
0.0576	0.174774
0.058	0.176944
0.0584	0.179121
0.0588	0.181304
0.0592	0.183494
0.0596	0.185691
0.06	0.187894
0.0604	0.190103
0.0608	0.192318
0.0612	0.194539
0.0616	0.196765
0.062	0.198997
0.0624	0.201235
0.0628	0.203478
0.0632	0.205726
0.0636	0.207979
0.064	0.210237
0.0644	0.2125
0.0648	0.214767
0.0652	0.21704
0.0656	0.219316
0.066	0.221598
0.0664	0.223884
0.0668	0.226174
0.0672	0.228469
0.0676	0.230769
0.068	0.233072
0.0684	0.235381
0.0688	0.237693
0.0692	0.24001
0.0696	0.242332
0.07	0.244658
0.0704	0.246988
0.0708	0.249323
0.0712	0.251663
0.0716	0.254007
0.072	0.256356
0.0724	0.258709
0.0728	0.261067
0.0732	0.26343
0.0736	0.265797
0.074	0.26817
0.0744	0.270547
0.0748	0.272929
0.0752	0.275316
0.0756	0.277708
0.076	0.280105
0.0764	0.282507
0.0768	0.284914
0.0772	0.287326
0.0776	0.289743
0.078	0.292166
0.0784	0.294594
0.0788	0.297027
0.0792	0.299466
0.0796	0.30191
0.08	0.30436
0.0804	0.306815
0.0808	0.309276
0.0812	0.311742
0.0816	0.314214
0.082	0.316692
0.0824	0.319176
0.0828	0.321666
0.0832	0.324161
0.0836	0.326662
0.084	0.32917
0.0844	0.331683
0.0848	0.334203
0.0852	0.336729
0.0856	0.339261
0.086	0.341799
0.0864	0.344344
0.0868	0.346894
0.0872	0.349452
0.0876	0.352015
0.088	0.354586
0.0884	0.357162
0.0888	0.359745
0.0892	0.362335
0.0896	0.364932
0.09	0.367535
0.0904	0.370144
0.0908	0.372761
0.0912	0.375384
0.0916	0.378014
0.092	0.38065
0.0924	0.383294
0.0928	0.385944
0.0932	0.388601
0.0936	0.391265
0.094	0.393936
0.0944	0.396613
0.0948	0.399298
0.0952	0.401989
0.0956	0.404687
0.096	0.407392
0.0964	0.410105
0.0968	0.412823
0.0972	0.415549
0.0976	0.418282
0.098	0.421022
0.0984	0.423768
0.0988	0.426522
0.0992	0.429282
0.0996	0.432049
0.1	0.434824
0.1004	0.437605
0.1008	0.440393
0.1012	0.443188
0.1016	0.44599
0.102	0.448799
0.1024	0.451615
0.1028	0.454438
0.1032	0.457269
0.1036	0.460106
0.104	0.46295
0.1044	0.465802
0.1048	0.468661
0.1052	0.471527
0.1056	0.4744
0.106	0.477281
0.1064	0.48017
0.1068	0.483066
0.1072	0.485969
0.1076	0.48888
0.108	0.4918
0.1084	0.494727
0.1088	0.497662
0.1092	0.500605
0.1096	0.503556
0.11	0.506516
0.1104	0.509484
0.1108	0.512461
0.1112	0.515447
0.1116	0.518441
0.112	0.521445
0.1124	0.524457
0.1128	0.527479
0.1132	0.53051
0.1136	0.533551
0.114	0.536601
0.1144	0.539662
0.1148	0.542732
0.1152	0.545812
0.1156	0.548902
0.116	0.552003
0.1164	0.555114
0.1168	0.558236
0.1172	0.561369
0.1176	0.564512
0.118	0.567666
0.1184	0.570832
0.1188	0.574008
0.1192	0.577196
0.1196	0.580395
0.12	0.583606
0.1204	0.586828
0.1208	0.590061
0.1212	0.593306
0.1216	0.596563
0.122	0.599832
0.1224	0.603113
0.1228	0.606406
0.1232	0.60971
0.1236	0.613027
0.124	0.616356
0.1244	0.619697
0.1248	0.62305
0.1252	0.626416
0.1256	0.629793
0.126	0.633184
0.1264	0.636586
0.1268	0.640001
0.1272	0.643428
0.1276	0.646868
0.128	0.65032
0.1284	0.653785
0.1288	0.657262
0.1292	0.660752
0.1296	0.664254
0.13	0.667769
0.1304	0.671296
0.1308	0.674836
0.1312	0.678389
0.1316	0.681954
0.132	0.685533
0.1324	0.689123
0.1328	0.692727
0.1332	0.696343
0.1336	0.699972
0.134	0.703613
0.1344	0.707268
0.1348	0.710935
0.1352	0.714615
0.1356	0.718308
0.136	0.722013
0.1364	0.725732
0.1368	0.729463
0.1372	0.733207
0.1376	0.736964
0.138	0.740733
0.1384	0.744516
0.1388	0.748312
0.1392	0.75212
0.1396	0.755942
0.14	0.759776
0.1404	0.763624
0.1408	0.767484
0.1412	0.771358
0.1416	0.775244
0.142	0.779144
0.1424	0.783057
0.1428	0.786983
0.1432	0.790922
0.1436	0.794874
0.144	0.79884
0.1444	0.802819
0.1448	0.806811
0.1452	0.810817
0.1456	0.814836
0.146	0.818868
0.1464	0.822914
0.1468	0.826974
0.1472	0.831047
0.1476	0.835133
0.148	0.839234
0.1484	0.843348
0.1488	0.847476
0.1492	0.851618
0.1496	0.855774
0.15	0.859943
0.1504	0.864127
0.1508	0.868325
0.1512	0.872537
0.1516	0.876763
0.152	0.881004
0.1524	0.885259
0.1528	0.889528
0.1532	0.893812
0.1536	0.89811
0.154	0.902423
0.1544	0.90675
0.1548	0.911092
0.1552	0.915449
0.1556	0.919821
0.156	0.924208
0.1564	0.928609
0.1568	0.933026
0.1572	0.937458
0.1576	0.941905
0.158	0.946367
0.1584	0.950844
0.1588	0.955337
0.1592	0.959845
0.1596	0.964368
0.16	0.968907
0.1604	0.973461
0.1608	0.978031
0.1612	0.982616
0.1616	0.987217
0.162	0.991834
0.1624	0.996466
0.1628	1.00111
0.1632	1.00578
0.1636	1.01046
0.164	1.01515
0.1644	1.01986
0.1648	1.02459
0.1652	1.02933
0.1656	1.03409
0.166	1.03887
0.1664	1.04366
0.1668	1.04846
0.1672	1.05329
0.1676	1.05813
0.168	1.06298
0.1684	1.06785
0.1688	1.07274
0.1692	1.07764
0.1696	1.08255
0.17	1.08749
0.1704	1.09244
0.1708	1.0974
0.1712	1.10238
0.1716	1.10738
0.172	1.11239
0.1724	1.11742
0.1728	1.12246
0.1732	1.12752
0.1736	1.13259
0.174	1.13768
0.1744	1.14279
0.1748	1.14791
0.1752	1.15304
0.1756	1.15819
0.176	1.16336
0.1764	1.16854
0.1768	1.17374
0.1772	1.17895
0.1776	1.18417
0.178	1.18941
0.1784	1.19467
0.1788	1.19994
0.1792	1.20522
0.1796	1.21052
0.18	1.21583
0.1804	1.22116
0.1808	1.2265
0.1812	1.23185
0.1816	1.23722
0.182	1.24261
0.1824	1.248
0.1828	1.25341
0.1832	1.25884
0.1836	1.26427
0.184	1.26972
0.1844	1.27519
0.1848	1.28066
0.1852	1.28615
0.1856	1.29165
0.186	1.29717
0.1864	1.3027
0.1868	1.30824
0.1872	1.31379
0.1876	1.31935
0.188	1.32493
0.1884	1.33052
0.1888	1.33612
0.1892	1.34173
0.1896	1.34736
0.19	1.35299
0.1904	1.35864
0.1908	1.3643
0.1912	1.36997
0.1916	1.37565
0.192	1.38135
0.1924	1.38705
0.1928	1.39276
0.1932	1.39849
0.1936	1.40423
0.194	1.40997
0.1944	1.41573
0.1948	1.4215
0.1952	1.42728
0.1956	1.43306
0.196	1.43886
0.1964	1.44467
0.1968	1.45049
0.1972	1.45632
0.1976	1.46215
0.198	1.468
0.1984	1.47386
0.1988	1.47972
0.1992	1.4856
0.1996	1.49148
0.2	1.49737
0.2004	1.50327
0.2008	1.50918
0.2012	1.5151
0.2016	1.52103
0.202	1.52697
0.2024	1.53291
0.2028	1.53887
0.2032	1.54483
0.2036	1.5508
0.204	1.55677
0.2044	1.56276
0.2048	1.56875
0.2052	1.57476
0.2056	1.58076
0.206	1.58678
0.2064	1.5928
0.2068	1.59884
0.2072	1.60488
0.2076	1.61092
0.208	1.61698
0.2084	1.62304
0.2088	1.6291
0.2092	1.63518
0.2096	1.64126
0.21	1.64735
0.2104	1.65344
0.2108	1.65954
0.2112	1.66565
0.2116	1.67176
0.212	1.67788
0.2124	1.68401
0.2128	1.69014
0.2132	1.69628
0.2136	1.70242
0.214	1.70857
0.2144	1.71473
0.2148	1.72089
0.2152	1.72706
0.2156	1.73323
0.216	1.73941
0.2164	1.7456
0.2168	1.75179
0.2172	1.75798
0.2176	1.76418
0.218	1.77039
0.2184	1.7766
0.2188	1.78281
0.2192	1.78904
0.2196	1.79526
0.22	1.80149
0.2204	1.80773
0.2208	1.81397
0.2212	1.82022
0.2216	1.82647
0.222	1.83272
0.2224	1.83898
0.2228	1.84525
0.2232	1.85152
0.2236	1.85779
0.224	1.86407
0.2244	1.87035
0.2248	1.87664
0.2252	1.88294
0.2256	1.88923
0.226	1.89554
0.2264	1.90184
0.2268	1.90815
0.2272	1.91447
0.2276	1.92079
0.228	1.92712
0.2284	1.93345
0.2288	1.93978
0.2292	1.94612
0.2296	1.95246
0.23	1.95881
0.2304	1.96517
0.2308	1.97152
0.2312	1.97789
0.2316	1.98425
0.232	1.99063
0.2324	1.997
0.2328	2.00338
0.2332	2.00977
0.2336	2.01616
0.234	2.02256
0.2344	2.02896
0.2348	2.03537
0.2352	2.04178
0.2356	2.04819
0.236	2.05461
0.2364	2.06104
0.2368	2.06747
0.2372	2.07391
0.2376	2.08035
0.238	2.08679
0.2384	2.09324
0.2388	2.0997
0.2392	2.10616
0.2396	2.11263
0.24	2.1191
0.2404	2.12558
0.2408	2.13206
0.2412	2.13855
0.2416	2.14504
0.242	2.15154
0.2424	2.15805
0.2428	2.16456
0.2432	2.17107
0.2436	2.17759
0.244	2.18412
0.2444	2.19065
0.2448	2.19719
0.2452	2.20373
0.2456	2.21028
0.246	2.21683
0.2464	2.22339
0.2468	2.22996
0.2472	2.23653
0.2476	2.24311
0.248	2.24969
0.2484	2.25628
0.2488	2.26287
0.2492	2.26947
0.2496	2.27608
0.25	2.28269
0.2504	2.28931
0.2508	2.29593
0.2512	2.30256
0.2516	2.3092
0.252	2.31584
0.2524	2.32249
0.2528	2.32914
0.2532	2.3358
0.2536	2.34247
0.254	2.34914
0.2544	2.35582
0.2548	2.36251
0.2552	2.3692
0.2556	2.37589
0.256	2.3826
0.2564	2.3893
0.2568	2.39602
0.2572	2.40274
0.2576	2.40947
0.258	2.4162
0.2584	2.42295
0.2588	2.42969
0.2592	2.43645
0.2596	2.44321
0.26	2.44997
0.2604	2.45675
0.2608	2.46352
0.2612	2.47031
0.2616	2.4771
0.262	2.4839
0.2624	2.49071
0.2628	2.49752
0.2632	2.50434
0.2636	2.51117
0.264	2.518
0.2644	2.52484
0.2648	2.53169
0.2652	2.53854
0.2656	2.5454
0.266	2.55227
0.2664	2.55915
0.2668	2.56603
0.2672	2.57292
0.2676	2.57982
0.268	2.58672
0.2684	2.59363
0.2688	2.60055
0.2692	2.60748
0.2696	2.61441
0.27	2.62135
0.2704	2.6283
0.2708	2.63526
0.2712	2.64223
0.2716	2.6492
0.272	2.65618
0.2724	2.66317
0.2728	2.67017
0.2732	2.67717
0.2736	2.68419
0.274	2.69121
0.2744	2.69824
0.2748	2.70528
0.2752	2.71232
0.2756	2.71938
0.276	2.72645
0.2764	2.73352
0.2768	2.7406
0.2772	2.74769
0.2776	2.75479
0.278	2.7619
0.2784	2.76902
0.2788	2.77615
0.2792	2.78329
0.2796	2.79044
0.28	2.79759
0.2804	2.80476
0.2808	2.81194
0.2812	2.81912
0.2816	2.82632
0.282	2.83353
0.2824	2.84074
0.2828	2.84797
0.2832	2.8552
0.2836	2.86245
0.284	2.86971
0.2844	2.87698
0.2848	2.88426
0.2852	2.89155
0.2856	2.89885
0.286	2.90616
0.2864	2.91348
0.2868	2.92082
0.2872	2.92816
0.2876	2.93552
0.288	2.94289
0.2884	2.95027
0.2888	2.95766
0.2892	2.96506
0.2896	2.97247
0.29	2.9799
0.2904	2.98734
0.2908	2.99479
0.2912	3.00225
0.2916	3.00973
0.292	3.01722
0.2924	3.02472
0.2928	3.03223
0.2932	3.03975
0.2936	3.04729
0.294	3.05484
0.2944	3.0624
0.2948	3.06998
0.2952	3.07757
0.2956	3.08517
0.296	3.09279
0.2964	3.10042
0.2968	3.10806
0.2972	3.11571
0.2976	3.12338
0.298	3.13107
0.2984	3.13876
0.2988	3.14647
0.2992	3.1542
0.2996	3.16193
0.3	3.16969
0.3004	3.17745
0.3008	3.18523
0.3012	3.19302
0.3016	3.20083
0.302	3.20866
0.3024	3.21649
0.3028	3.22434
0.3032	3.23221
0.3036	3.24009
0.304	3.24798
0.3044	3.25589
0.3048	3.26382
0.3052	3.27176
0.3056	3.27971
0.306	3.28768
0.3064	3.29566
0.3068	3.30366
0.3072	3.31168
0.3076	3.31971
0.308	3.32775
0.3084	3.33581
0.3088	3.34388
0.3092	3.35197
0.3096	3.36008
0.31	3.3682
0.3104	3.37633
0.3108	3.38448
0.3112	3.39265
0.3116	3.40083
0.312	3.40903
0.3124	3.41724
0.3128	3.42547
0.3132	3.43371
0.3136	3.44197
0.314	3.45024
0.3144	3.45853
0.3148	3.46684
0.3152	3.47516
0.3156	3.48349
0.316	3.49184
0.3164	3.50021
0.3168	3.50859
0.3172	3.51699
0.3176	3.5254
0.318	3.53383
0.3184	3.54227
0.3188	3.55072
0.3192	3.5592
0.3196	3.56768
0.32	3.57619
0.3204	3.5847
0.3208	3.59323
0.3212	3.60178
0.3216	3.61034
0.322	3.61891
0.3224	3.6275
0.3228	3.63611
0.3232	3.64472
0.3236	3.65336
0.324	3.662
0.3244	3.67066
0.3248	3.67933
0.3252	3.68802
0.3256	3.69672
0.326	3.70543
0.3264	3.71416
0.3268	3.7229
0.3272	3.73165
0.3276	3.74041
0.328	3.74919
0.3284	3.75798
0.3288	3.76678
0.3292	3.77559
0.3296	3.78441
0.33	3.79325
0.3304	3.8021
0.3308	3.81096
0.3312	3.81983
0.3316	3.82871
0.332	3.8376
0.3324	3.8465
0.3328	3.85541
0.3332	3.86434
0.3336	3.87327
0.334	3.88221
0.3344	3.89116
0.3348	3.90012
0.3352	3.90909
0.3356	3.91807
0.336	3.92706
0.3364	3.93606
0.3368	3.94506
0.3372	3.95408
0.3376	3.9631
0.338	3.97213
0.3384	3.98117
0.3388	3.99021
0.3392	3.99926
0.3396	4.00832
0.34	4.01739
0.3404	4.02646
0.3408	4.03554
0.3412	4.04463
0.3416	4.05372
0.342	4.06282
0.3424	4.07192
0.3428	4.08103
0.3432	4.09015
0.3436	4.09927
0.344	4.1084
0.3444	4.11753
0.3448	4.12667
0.3452	4.13581
0.3456	4.14496
0.346	4.15411
0.3464	4.16326
0.3468	4.17242
0.3472	4.18159
0.3476	4.19076
0.348	4.19993
0.3484	4.2091
0.3488	4.21828
0.3492	4.22747
0.3496	4.23665
0.35	4.24584
0.3504	4.25504
0.3508	4.26423
0.3512	4.27343
0.3516	4.28264
0.352	4.29184
0.3524	4.30105
0.3528	4.31026
0.3532	4.31947
0.3536	4.32869
0.354	4.33791
0.3544	4.34713
0.3548	4.35635
0.3552	4.36557
0.3556	4.3748
0.356	4.38402
0.3564	4.39325
0.3568	4.40248
0.3572	4.41171
0.3576	4.42095
0.358	4.43018
0.3584	4.43942
0.3588	4.44865
0.3592	4.45789
0.3596	4.46713
0.36	4.47637
0.3604	4.48561
0.3608	4.49485
0.3612	4.50409
0.3616	4.51333
0.362	4.52257
0.3624	4.53182
0.3628	4.54106
0.3632	4.5503
0.3636	4.55954
0.364	4.56878
0.3644	4.57802
0.3648	4.58726
0.3652	4.5965
0.3656	4.60574
0.366	4.61498
0.3664	4.62422
0.3668	4.63346
0.3672	4.64269
0.3676	4.65193
0.368	4.66116
0.3684	4.67039
0.3688	4.67962
0.3692	4.68885
0.3696	4.69807
0.37	4.7073
0.3704	4.71652
0.3708	4.72574
0.3712	4.73495
0.3716	4.74417
0.372	4.75338
0.3724	4.76259
0.3728	4.7718
0.3732	4.781
0.3736	4.7902
0.374	4.7994
0.3744	4.80859
0.3748	4.81778
0.3752	4.82696
0.3756	4.83615
0.376	4.84532
0.3764	4.8545
0.3768	4.86367
0.3772	4.87283
0.3776	4.88199
0.378	4.89115
0.3784	4.9003
0.3788	4.90944
0.3792	4.91858
0.3796	4.92772
0.38	4.93685
0.3804	4.94597
0.3808	4.95509
0.3812	4.9642
0.3816	4.97331
0.382	4.98241
0.3824	4.9915
0.3828	5.00059
0.3832	5.00967
0.3836	5.01874
0.384	5.02781
0.3844	5.03687
0.3848	5.04592
0.3852	5.05497
0.3856	5.06401
0.386	5.07304
0.3864	5.08206
0.3868	5.09107
0.3872	5.10008
0.3876	5.10908
0.388	5.11807
0.3884	5.12705
0.3888	5.13602
0.3892	5.14499
0.3896	5.15394
0.39	5.16289
0.3904	5.17183
0.3908	5.18076
0.3912	5.18968
0.3916	5.19859
0.392	5.20749
0.3924	5.21638
0.3928	5.22526
0.3932	5.23414
0.3936	5.243
0.394	5.25185
0.3944	5.26069
0.3948	5.26953
0.3952	5.27835
0.3956	5.28716
0.396	5.29596
0.3964	5.30475
0.3968	5.31353
0.3972	5.3223
0.3976	5.33106
0.398	5.33981
0.3984	5.34854
0.3988	5.35727
0.3992	5.36599
0.3996	5.37469
0.4	5.38338
0.4004	5.39206
0.4008	5.40073
0.4012	5.40939
0.4016	5.41804
0.402	5.42667
0.4024	5.43529
0.4028	5.4439
0.4032	5.4525
0.4036	5.46109
0.404	5.46967
0.4044	5.47823
0.4048	5.48678
0.4052	5.49532
0.4056	5.50384
0.406	5.51236
0.4064	5.52086
0.4068	5.52935
0.4072	5.53782
0.4076	5.54628
0.408	5.55473
0.4084	5.56317
0.4088	5.57159
0.4092	5.58
0.4096	5.5884
0.41	5.59679
0.4104	5.60516
0.4108	5.61351
0.4112	5.62186
0.4116	5.63019
0.412	5.6385
0.4124	5.64681
0.4128	5.65509
0.4132	5.66337
0.4136	5.67163
0.414	5.67988
0.4144	5.68811
0.4148	5.69633
0.4152	5.70453
0.4156	5.71272
0.416	5.72089
0.4164	5.72905
0.4168	5.73719
0.4172	5.74532
0.4176	5.75344
0.418	5.76154
0.4184	5.76962
0.4188	5.77769
0.4192	5.78574
0.4196	5.79378
0.42	5.8018
0.4204	5.80981
0.4208	5.8178
0.4212	5.82577
0.4216	5.83373
0.422	5.84167
0.4224	5.8496
0.4228	5.85751
0.4232	5.86541
0.4236	5.87328
0.424	5.88115
0.4244	5.88899
0.4248	5.89682
0.4252	5.90464
0.4256	5.91243
0.426	5.92021
0.4264	5.92798
0.4268	5.93572
0.4272	5.94346
0.4276	5.95117
0.428	5.95887
0.4284	5.96655
0.4288	5.97421
0.4292	5.98186
0.4296	5.98949
0.43	5.99711
0.4304	6.00471
0.4308	6.01229
0.4312	6.01986
0.4316	6.02741
0.432	6.03494
0.4324	6.04246
0.4328	6.04996
0.4332	6.05744
0.4336	6.06491
0.434	6.07237
0.4344	6.07981
0.4348	6.08723
0.4352	6.09464
0.4356	6.10203
0.436	6.1094
0.4364	6.11676
0.4368	6.12411
0.4372	6.13144
0.4376	6.13876
0.438	6.14606
0.4384	6.15335
0.4388	6.16062
0.4392	6.16788
0.4396	6.17513
0.44	6.18236
0.4404	6.18958
0.4408	6.19679
0.4412	6.20398
0.4416	6.21116
0.442	6.21833
0.4424	6.22548
0.4428	6.23262
0.4432	6.23975
0.4436	6.24687
0.444	6.25398
0.4444	6.26108
0.4448	6.26816
0.4452	6.27524
0.4456	6.2823
0.446	6.28935
0.4464	6.2964
0.4468	6.30343
0.4472	6.31045
0.4476	6.31747
0.448	6.32447
0.4484	6.33147
0.4488	6.33846
0.4492	6.34543
0.4496	6.35241
0.45	6.35937
0.4504	6.36632
0.4508	6.37327
0.4512	6.38021
0.4516	6.38715
0.452	6.39407
0.4524	6.40099
0.4528	6.40791
0.4532	6.41481
0.4536	6.42172
0.454	6.42861
0.4544	6.4355
0.4548	6.44239
0.4552	6.44927
0.4556	6.45615
0.456	6.46302
0.4564	6.46989
0.4568	6.47675
0.4572	6.48361
0.4576	6.49047
0.458	6.49732
0.4584	6.50417
0.4588	6.51102
0.4592	6.51786
0.4596	6.5247
0.46	6.53154
0.4604	6.53838
0.4608	6.54522
0.4612	6.55205
0.4616	6.55888
0.462	6.56571
0.4624	6.57254
0.4628	6.57937
0.4632	6.58619
0.4636	6.59302
0.464	6.59984
0.4644	6.60667
0.4648	6.61349
0.4652	6.62032
0.4656	6.62714
0.466	6.63396
0.4664	6.64079
0.4668	6.64761
0.4672	6.65444
0.4676	6.66127
0.468	6.66809
0.4684	6.67492
0.4688	6.68175
0.4692	6.68858
0.4696	6.69541
0.47	6.70225
0.4704	6.70908
0.4708	6.71592
0.4712	6.72276
0.4716	6.7296
0.472	6.73645
0.4724	6.74329
0.4728	6.75014
0.4732	6.75699
0.4736	6.76385
0.474	6.77071
0.4744	6.77757
0.4748	6.78443
0.4752	6.7913
0.4756	6.79817
0.476	6.80504
0.4764	6.81192
0.4768	6.8188
0.4772	6.82568
0.4776	6.83257
0.478	6.83947
0.4784	6.84636
0.4788	6.85326
0.4792	6.86017
0.4796	6.86708
0.48	6.874
0.4804	6.88092
0.4808	6.88784
0.4812	6.89477
0.4816	6.9017
0.482	6.90864
0.4824	6.91559
0.4828	6.92254
0.4832	6.9295
0.4836	6.93646
0.484	6.94343
0.4844	6.9504
0.4848	6.95738
0.4852	6.96437
0.4856	6.97136
0.486	6.97836
0.4864	6.98536
0.4868	6.99238
0.4872	6.99939
0.4876	7.00642
0.488	7.01345
0.4884	7.02049
0.4888	7.02754
0.4892	7.03459
0.4896	7.04165
0.49	7.04872
0.4904	7.05579
0.4908	7.06288
0.4912	7.06997
0.4916	7.07706
0.492	7.08417
0.4924	7.09128
0.4928	7.09841
0.4932	7.10554
0.4936	7.11267
0.494	7.11982
0.4944	7.12697
0.4948	7.13414
0.4952	7.14131
0.4956	7.14849
0.496	7.15568
0.4964	7.16288
0.4968	7.17008
0.4972	7.1773
0.4976	7.18452
0.498	7.19176
0.4984	7.199
0.4988	7.20625
0.4992	7.21351
0.4996	7.22078
0.5	7.22806
0.5004	7.23535
0.5008	7.24265
0.5012	7.24996
0.5016	7.25728
0.502	7.2646
0.5024	7.27194
0.5028	7.27929
0.5032	7.28664
0.5036	7.29401
0.504	7.30139
0.5044	7.30877
0.5048	7.31617
0.5052	7.32358
0.5056	7.33099
0.506	7.33842
0.5064	7.34585
0.5068	7.3533
0.5072	7.36076
0.5076	7.36822
0.508	7.3757
0.5084	7.38319
0.5088	7.39068
0.5092	7.39819
0.5096	7.40571
0.51	7.41324
0.5104	7.42078
0.5108	7.42832
0.5112	7.43588
0.5116	7.44345
0.512	7.45103
0.5124	7.45862
0.5128	7.46622
0.5132	7.47383
0.5136	7.48146
0.514	7.48909
0.5144	7.49673
0.5148	7.50438
0.5152	7.51205
0.5156	7.51972
0.516	7.52741
0.5164	7.5351
0.5168	7.54281
0.5172	7.55052
0.5176	7.55825
0.518	7.56599
0.5184	7.57373
0.5188	7.58149
0.5192	7.58926
0.5196	7.59704
0.52	7.60483
0.5204	7.61263
0.5208	7.62044
0.5212	7.62827
0.5216	7.6361
0.522	7.64395
0.5224	7.6518
0.5228	7.65967
0.5232	7.66754
0.5236	7.67543
0.524	7.68333
0.5244	7.69124
0.5248	7.69916
0.5252	7.7071
0.5256	7.71504
0.526	7.723
0.5264	7.73096
0.5268	7.73894
0.5272	7.74693
0.5276	7.75493
0.528	7.76294
0.5284	7.77097
