# Gnuplot File : external energy of the system 
# 1st Column : time, 2nd : external energy
0.0004	0.0179156
0.0008	0.0290364
0.0012	0.0509393
0.0016	0.079143
0.002	0.109329
0.0024	0.139085
0.0028	0.167701
0.0032	0.195477
0.0036	0.223016
0.004	0.25076
0.0044	0.278846
0.0048	0.307199
0.0052	0.335675
0.0056	0.364176
0.006	0.392671
0.0064	0.421176
0.0068	0.449719
0.0072	0.478314
0.0076	0.506963
0.008	0.535658
0.0084	0.564389
0.0088	0.593151
0.0092	0.621941
0.0096	0.650755
0.01	0.679593
0.0104	0.70845
0.0108	0.737322
0.0112	0.766206
0.0116	0.795097
0.012	0.823991
0.0124	0.852884
0.0128	0.881772
0.0132	0.910653
0.0136	0.939521
0.014	0.968372
0.0144	0.997204
0.0148	1.02601
0.0152	1.05479
0.0156	1.08353
0.016	1.11224
0.0164	1.1409
0.0168	1.16952
0.0172	1.19808
0.0176	1.22659
0.018	1.25504
0.0184	1.28343
0.0188	1.31174
0.0192	1.33998
0.0196	1.36814
0.02	1.39622
0.0204	1.42421
0.0208	1.4521
0.0212	1.47989
0.0216	1.50758
0.022	1.53515
0.0224	1.56261
0.0228	1.58995
0.0232	1.61717
0.0236	1.64425
0.024	1.67119
0.0244	1.69798
0.0248	1.72463
0.0252	1.75112
0.0256	1.77745
0.026	1.80361
0.0264	1.82959
0.0268	1.85539
0.0272	1.88101
0.0276	1.90643
0.028	1.93164
0.0284	1.95665
0.0288	1.98145
0.0292	2.00601
0.0296	2.03035
0.03	2.05445
0.0304	2.0783
0.0308	2.1019
0.0312	2.12523
0.0316	2.14829
0.032	2.17108
0.0324	2.19357
0.0328	2.21576
0.0332	2.23765
0.0336	2.25921
0.034	2.28045
0.0344	2.30136
0.0348	2.32191
0.0352	2.34211
0.0356	2.36193
0.036	2.38138
0.0364	2.40044
0.0368	2.41909
0.0372	2.43733
0.0376	2.45514
0.038	2.47252
0.0384	2.48944
0.0388	2.50591
0.0392	2.52189
0.0396	2.53739
0.04	2.55239
0.0404	2.56688
0.0408	2.58084
0.0412	2.59426
0.0416	2.60713
0.042	2.61943
0.0424	2.63116
0.0428	2.6423
0.0432	2.65284
0.0436	2.66276
0.044	2.67205
0.0444	2.68071
0.0448	2.68871
0.0452	2.69605
0.0456	2.70272
0.046	2.70871
0.0464	2.714
0.0468	2.71858
0.0472	2.72245
0.0476	2.72559
0.048	2.728
0.0484	2.72966
0.0488	2.73057
0.0492	2.73071
0.0496	2.73009
0.05	2.72869
0.0504	2.7265
0.0508	2.72351
0.0512	2.71973
0.0516	2.71513
0.052	2.70972
0.0524	2.70349
0.0528	2.69642
0.0532	2.68852
0.0536	2.67978
0.054	2.6702
0.0544	2.65976
0.0548	2.64846
0.0552	2.6363
0.0556	2.62327
0.056	2.60936
0.0564	2.59459
0.0568	2.57892
0.0572	2.56238
0.0576	2.54494
0.058	2.52662
0.0584	2.5074
0.0588	2.48728
0.0592	2.46626
0.0596	2.44434
0.06	2.42151
0.0604	2.39778
0.0608	2.37315
0.0612	2.34761
0.0616	2.32116
0.062	2.2938
0.0624	2.26554
0.0628	2.23638
0.0632	2.20631
0.0636	2.17535
0.064	2.14348
0.0644	2.11072
0.0648	2.07707
0.0652	2.04254
0.0656	2.00712
0.066	1.97083
0.0664	1.93366
0.0668	1.89564
0.0672	1.85676
0.0676	1.81704
0.068	1.77648
0.0684	1.7351
0.0688	1.6929
0.0692	1.64989
0.0696	1.6061
0.07	1.56152
0.0704	1.51619
0.0708	1.47011
0.0712	1.42329
0.0716	1.37576
0.072	1.32754
0.0724	1.27864
0.0728	1.22909
0.0732	1.1789
0.0736	1.12809
0.074	1.0767
0.0744	1.02475
0.0748	0.972249
0.0752	0.919238
0.0756	0.86574
0.076	0.811781
0.0764	0.757391
0.0768	0.702597
0.0772	0.647429
0.0776	0.591917
0.078	0.536092
0.0784	0.479983
0.0788	0.423621
0.0792	0.367038
0.0796	0.310263
0.08	0.253327
0.0804	0.196261
0.0808	0.139094
0.0812	0.0818547
0.0816	0.0245729
0.082	-0.0327244
0.0824	-0.0900102
0.0828	-0.147259
0.0832	-0.204445
0.0836	-0.261547
0.084	-0.318541
0.0844	-0.375407
0.0848	-0.432126
0.0852	-0.48868
0.0856	-0.545052
0.086	-0.601229
0.0864	-0.657198
0.0868	-0.712946
0.0872	-0.768465
0.0876	-0.823746
0.088	-0.878781
0.0884	-0.933567
0.0888	-0.988098
0.0892	-1.04237
0.0896	-1.09639
0.09	-1.15014
0.0904	-1.20364
0.0908	-1.25688
0.0912	-1.30986
0.0916	-1.3626
0.092	-1.41508
0.0924	-1.46732
0.0928	-1.51931
0.0932	-1.57107
0.0936	-1.6226
0.094	-1.67389
0.0944	-1.72497
0.0948	-1.77582
0.0952	-1.82646
0.0956	-1.87689
0.096	-1.92711
0.0964	-1.97712
0.0968	-2.02694
0.0972	-2.07656
0.0976	-2.12598
0.098	-2.17521
0.0984	-2.22426
0.0988	-2.27311
0.0992	-2.32178
0.0996	-2.37027
0.1	-2.41857
0.1004	-2.46669
0.1008	-2.51462
0.1012	-2.56238
0.1016	-2.60996
0.102	-2.65736
0.1024	-2.70459
0.1028	-2.75164
0.1032	-2.79851
0.1036	-2.84521
0.104	-2.89173
0.1044	-2.93808
0.1048	-2.98426
0.1052	-3.03027
0.1056	-3.07611
0.106	-3.12178
0.1064	-3.16729
0.1068	-3.21263
0.1072	-3.25781
0.1076	-3.30284
0.108	-3.3477
0.1084	-3.39241
0.1088	-3.43697
0.1092	-3.48139
0.1096	-3.52565
0.11	-3.56977
0.1104	-3.61376
0.1108	-3.65761
0.1112	-3.70133
0.1116	-3.74492
0.112	-3.78838
0.1124	-3.83173
0.1128	-3.87496
0.1132	-3.91808
0.1136	-3.9611
0.114	-4.00401
0.1144	-4.04683
0.1148	-4.08956
0.1152	-4.1322
0.1156	-4.17476
0.116	-4.21725
0.1164	-4.25966
0.1168	-4.30201
0.1172	-4.3443
0.1176	-4.38654
0.118	-4.42873
0.1184	-4.47087
0.1188	-4.51298
0.1192	-4.55505
0.1196	-4.5971
0.12	-4.63913
0.1204	-4.68114
0.1208	-4.72313
0.1212	-4.76513
0.1216	-4.80712
0.122	-4.84911
0.1224	-4.89112
0.1228	-4.93313
0.1232	-4.97516
0.1236	-5.01722
0.124	-5.0593
0.1244	-5.1014
0.1248	-5.14354
0.1252	-5.18572
0.1256	-5.22793
0.126	-5.27018
0.1264	-5.31248
0.1268	-5.35482
0.1272	-5.39721
0.1276	-5.43965
0.128	-5.48214
0.1284	-5.52468
0.1288	-5.56727
0.1292	-5.60991
0.1296	-5.65261
0.13	-5.69535
0.1304	-5.73814
0.1308	-5.78098
0.1312	-5.82387
0.1316	-5.86681
0.132	-5.90978
0.1324	-5.9528
0.1328	-5.99585
0.1332	-6.03893
0.1336	-6.08205
0.134	-6.12519
0.1344	-6.16835
0.1348	-6.21152
0.1352	-6.25471
0.1356	-6.2979
0.136	-6.34108
0.1364	-6.38426
0.1368	-6.42743
0.1372	-6.47056
0.1376	-6.51367
0.138	-6.55674
0.1384	-6.59976
0.1388	-6.64273
0.1392	-6.68563
0.1396	-6.72845
0.14	-6.77119
0.1404	-6.81383
0.1408	-6.85636
0.1412	-6.89877
0.1416	-6.94105
0.142	-6.98319
0.1424	-7.02518
0.1428	-7.06699
0.1432	-7.10862
0.1436	-7.15006
0.144	-7.19128
0.1444	-7.23228
0.1448	-7.27304
0.1452	-7.31354
0.1456	-7.35378
0.146	-7.39372
0.1464	-7.43337
0.1468	-7.47269
0.1472	-7.51167
0.1476	-7.5503
0.148	-7.58856
0.1484	-7.62642
0.1488	-7.66388
0.1492	-7.70091
0.1496	-7.73749
0.15	-7.77361
0.1504	-7.80925
0.1508	-7.84438
0.1512	-7.87899
0.1516	-7.91306
0.152	-7.94657
0.1524	-7.97951
0.1528	-8.01184
0.1532	-8.04355
0.1536	-8.07463
0.154	-8.10506
0.1544	-8.13481
0.1548	-8.16386
0.1552	-8.19221
0.1556	-8.21983
0.156	-8.2467
0.1564	-8.27282
0.1568	-8.29815
0.1572	-8.32268
0.1576	-8.34641
0.158	-8.36931
0.1584	-8.39137
0.1588	-8.41258
0.1592	-8.43292
0.1596	-8.45238
0.16	-8.47095
0.1604	-8.48862
0.1608	-8.50538
0.1612	-8.52122
0.1616	-8.53613
0.162	-8.55011
0.1624	-8.56314
0.1628	-8.57523
0.1632	-8.58636
0.1636	-8.59653
0.164	-8.60575
0.1644	-8.61401
0.1648	-8.6213
0.1652	-8.62763
0.1656	-8.633
0.166	-8.63741
0.1664	-8.64086
0.1668	-8.64335
0.1672	-8.6449
0.1676	-8.6455
0.168	-8.64516
0.1684	-8.64388
0.1688	-8.64168
0.1692	-8.63855
0.1696	-8.63452
0.17	-8.62958
0.1704	-8.62374
0.1708	-8.61702
0.1712	-8.60943
0.1716	-8.60097
0.172	-8.59165
0.1724	-8.58149
0.1728	-8.5705
0.1732	-8.55868
0.1736	-8.54606
0.174	-8.53263
0.1744	-8.51842
0.1748	-8.50343
0.1752	-8.48767
0.1756	-8.47116
0.176	-8.45391
0.1764	-8.43592
0.1768	-8.41722
0.1772	-8.39781
0.1776	-8.3777
0.178	-8.35691
0.1784	-8.33544
0.1788	-8.31331
0.1792	-8.29052
0.1796	-8.26709
0.18	-8.24303
0.1804	-8.21835
0.1808	-8.19305
0.1812	-8.16715
0.1816	-8.14066
0.182	-8.11359
0.1824	-8.08595
0.1828	-8.05775
0.1832	-8.02899
0.1836	-7.9997
0.184	-7.96987
0.1844	-7.93952
0.1848	-7.90866
0.1852	-7.87729
0.1856	-7.84544
0.186	-7.8131
0.1864	-7.78029
0.1868	-7.74702
0.1872	-7.7133
0.1876	-7.67913
0.188	-7.64454
0.1884	-7.60952
0.1888	-7.5741
0.1892	-7.53827
0.1896	-7.50206
0.19	-7.46547
0.1904	-7.42852
0.1908	-7.39121
0.1912	-7.35355
0.1916	-7.31556
0.192	-7.27725
0.1924	-7.23863
0.1928	-7.1997
0.1932	-7.16049
0.1936	-7.121
0.194	-7.08125
0.1944	-7.04124
0.1948	-7.00099
0.1952	-6.9605
0.1956	-6.91979
0.196	-6.87888
0.1964	-6.83776
0.1968	-6.79645
0.1972	-6.75497
0.1976	-6.71331
0.198	-6.6715
0.1984	-6.62955
0.1988	-6.58745
0.1992	-6.54523
0.1996	-6.50289
0.2	-6.46044
0.2004	-6.41789
0.2008	-6.37526
0.2012	-6.33254
0.2016	-6.28974
0.202	-6.24688
0.2024	-6.20397
0.2028	-6.161
0.2032	-6.11799
0.2036	-6.07495
0.204	-6.03187
0.2044	-5.98878
0.2048	-5.94566
0.2052	-5.90253
0.2056	-5.8594
0.206	-5.81626
0.2064	-5.77313
0.2068	-5.73
0.2072	-5.68688
0.2076	-5.64377
0.208	-5.60068
0.2084	-5.55761
0.2088	-5.51456
0.2092	-5.47153
0.2096	-5.42852
0.21	-5.38554
0.2104	-5.34258
0.2108	-5.29964
0.2112	-5.25673
0.2116	-5.21385
0.212	-5.17098
0.2124	-5.12814
0.2128	-5.08532
0.2132	-5.04251
0.2136	-4.99972
0.214	-4.95694
0.2144	-4.91417
0.2148	-4.87141
0.2152	-4.82864
0.2156	-4.78588
0.216	-4.74311
0.2164	-4.70032
0.2168	-4.65752
0.2172	-4.6147
0.2176	-4.57185
0.218	-4.52897
0.2184	-4.48605
0.2188	-4.44308
0.2192	-4.40006
0.2196	-4.35699
0.22	-4.31385
0.2204	-4.27063
0.2208	-4.22734
0.2212	-4.18396
0.2216	-4.14049
0.222	-4.09692
0.2224	-4.05324
0.2228	-4.00944
0.2232	-3.96551
0.2236	-3.92146
0.224	-3.87726
0.2244	-3.83292
0.2248	-3.78843
0.2252	-3.74377
0.2256	-3.69894
0.226	-3.65393
0.2264	-3.60873
0.2268	-3.56335
0.2272	-3.51776
0.2276	-3.47196
0.228	-3.42596
0.2284	-3.37973
0.2288	-3.33327
0.2292	-3.28658
0.2296	-3.23965
0.23	-3.19248
0.2304	-3.14505
0.2308	-3.09737
0.2312	-3.04943
0.2316	-3.00122
0.232	-2.95275
0.2324	-2.904
0.2328	-2.85498
0.2332	-2.80568
0.2336	-2.7561
0.234	-2.70623
0.2344	-2.65609
0.2348	-2.60565
0.2352	-2.55494
0.2356	-2.50394
0.236	-2.45265
0.2364	-2.40108
0.2368	-2.34923
0.2372	-2.29711
0.2376	-2.2447
0.238	-2.19203
0.2384	-2.13909
0.2388	-2.08588
0.2392	-2.03242
0.2396	-1.9787
0.24	-1.92474
0.2404	-1.87054
0.2408	-1.81611
0.2412	-1.76146
0.2416	-1.70659
0.242	-1.65151
0.2424	-1.59624
0.2428	-1.54079
0.2432	-1.48516
0.2436	-1.42936
0.244	-1.37341
0.2444	-1.31733
0.2448	-1.26111
0.2452	-1.20478
0.2456	-1.14834
0.246	-1.09182
0.2464	-1.03522
0.2468	-0.978562
0.2472	-0.921856
0.2476	-0.865118
0.248	-0.808363
0.2484	-0.751606
0.2488	-0.694862
0.2492	-0.638147
0.2496	-0.581475
0.25	-0.524863
0.2504	-0.468325
0.2508	-0.411879
0.2512	-0.355539
0.2516	-0.29932
0.252	-0.24324
0.2524	-0.187313
0.2528	-0.131555
0.2532	-0.0759811
0.2536	-0.0206072
0.254	0.0345515
0.2544	0.0894801
0.2548	0.144163
0.2552	0.198587
0.2556	0.252735
0.256	0.306594
0.2564	0.360149
0.2568	0.413386
0.2572	0.466292
0.2576	0.518852
0.258	0.571052
0.2584	0.62288
0.2588	0.674322
0.2592	0.725366
0.2596	0.775997
0.26	0.826205
0.2604	0.875977
0.2608	0.925299
0.2612	0.974161
0.2616	1.02255
0.262	1.07046
0.2624	1.11787
0.2628	1.16477
0.2632	1.21116
0.2636	1.25701
0.264	1.30233
0.2644	1.3471
0.2648	1.39131
0.2652	1.43495
0.2656	1.478
0.266	1.52047
0.2664	1.56234
0.2668	1.60359
0.2672	1.64423
0.2676	1.68424
0.268	1.72361
0.2684	1.76234
0.2688	1.80041
0.2692	1.83781
0.2696	1.87455
0.27	1.9106
0.2704	1.94596
0.2708	1.98063
0.2712	2.01459
0.2716	2.04784
0.272	2.08038
0.2724	2.11218
0.2728	2.14325
0.2732	2.17359
0.2736	2.20317
0.274	2.23201
0.2744	2.26008
0.2748	2.2874
0.2752	2.31394
0.2756	2.33971
0.276	2.3647
0.2764	2.38891
0.2768	2.41233
0.2772	2.43496
0.2776	2.4568
0.278	2.47784
0.2784	2.49808
0.2788	2.51752
0.2792	2.53615
0.2796	2.55398
0.28	2.571
0.2804	2.58722
0.2808	2.60263
0.2812	2.61723
0.2816	2.63102
0.282	2.64401
0.2824	2.6562
0.2828	2.66758
0.2832	2.67815
0.2836	2.68794
0.284	2.69692
0.2844	2.70511
0.2848	2.71252
0.2852	2.71914
0.2856	2.72498
0.286	2.73005
0.2864	2.73434
0.2868	2.73787
0.2872	2.74065
0.2876	2.74267
0.288	2.74395
0.2884	2.74449
0.2888	2.7443
0.2892	2.74339
0.2896	2.74176
0.29	2.73943
0.2904	2.7364
0.2908	2.73268
0.2912	2.72828
0.2916	2.72322
0.292	2.71749
0.2924	2.71112
0.2928	2.7041
0.2932	2.69646
0.2936	2.6882
0.294	2.67933
0.2944	2.66986
0.2948	2.65981
0.2952	2.64918
0.2956	2.63799
0.296	2.62625
0.2964	2.61397
0.2968	2.60116
0.2972	2.58783
0.2976	2.574
0.298	2.55967
0.2984	2.54486
0.2988	2.52958
0.2992	2.51384
0.2996	2.49765
0.3	2.48103
0.3004	2.46398
0.3008	2.44652
0.3012	2.42865
0.3016	2.41039
0.302	2.39176
0.3024	2.37275
0.3028	2.35338
0.3032	2.33366
0.3036	2.31361
0.304	2.29322
0.3044	2.27251
0.3048	2.25149
0.3052	2.23018
0.3056	2.20856
0.306	2.18667
0.3064	2.1645
0.3068	2.14206
0.3072	2.11936
0.3076	2.0964
0.308	2.0732
0.3084	2.04976
0.3088	2.02609
0.3092	2.00219
0.3096	1.97807
0.31	1.95373
0.3104	1.92918
0.3108	1.90442
0.3112	1.87946
0.3116	1.8543
0.312	1.82894
0.3124	1.80338
0.3128	1.77764
0.3132	1.7517
0.3136	1.72558
0.314	1.69927
0.3144	1.67277
0.3148	1.64609
0.3152	1.61922
0.3156	1.59217
0.316	1.56493
0.3164	1.5375
0.3168	1.50989
0.3172	1.48208
0.3176	1.45408
0.318	1.42589
0.3184	1.3975
0.3188	1.36891
0.3192	1.34011
0.3196	1.31111
0.32	1.2819
0.3204	1.25247
0.3208	1.22282
0.3212	1.19295
0.3216	1.16285
0.322	1.13251
0.3224	1.10194
0.3228	1.07112
0.3232	1.04005
0.3236	1.00873
0.324	0.977152
0.3244	0.945304
0.3248	0.913184
0.3252	0.880786
0.3256	0.848105
0.326	0.815134
0.3264	0.781868
0.3268	0.748301
0.3272	0.714426
0.3276	0.680239
0.328	0.645733
0.3284	0.610902
0.3288	0.575742
0.3292	0.540246
0.3296	0.504409
0.33	0.468226
0.3304	0.431692
0.3308	0.394801
0.3312	0.357549
0.3316	0.319931
0.332	0.281943
0.3324	0.243581
0.3328	0.204839
0.3332	0.165715
0.3336	0.126205
0.334	0.0863044
0.3344	0.0460109
0.3348	0.00532114
0.3352	-0.0357677
0.3356	-0.0772583
0.336	-0.119153
0.3364	-0.161454
0.3368	-0.204163
0.3372	-0.247282
0.3376	-0.290812
0.338	-0.334755
0.3384	-0.379111
0.3388	-0.423882
0.3392	-0.469067
0.3396	-0.514668
0.34	-0.560683
0.3404	-0.607114
0.3408	-0.653959
0.3412	-0.701217
0.3416	-0.748889
0.342	-0.796973
0.3424	-0.845467
0.3428	-0.89437
0.3432	-0.943681
0.3436	-0.993397
0.344	-1.04352
0.3444	-1.09404
0.3448	-1.14495
0.3452	-1.19627
0.3456	-1.24797
0.346	-1.30006
0.3464	-1.35254
0.3468	-1.40541
0.3472	-1.45864
0.3476	-1.51226
0.348	-1.56624
0.3484	-1.62058
0.3488	-1.67529
0.3492	-1.73035
0.3496	-1.78576
0.35	-1.84151
0.3504	-1.8976
0.3508	-1.95403
0.3512	-2.01078
0.3516	-2.06784
0.352	-2.12522
0.3524	-2.18291
0.3528	-2.2409
0.3532	-2.29917
0.3536	-2.35773
0.354	-2.41657
0.3544	-2.47567
0.3548	-2.53503
0.3552	-2.59464
0.3556	-2.65449
0.356	-2.71457
0.3564	-2.77487
0.3568	-2.83539
0.3572	-2.8961
0.3576	-2.95701
0.358	-3.0181
0.3584	-3.07936
0.3588	-3.14077
0.3592	-3.20234
0.3596	-3.26404
0.36	-3.32586
0.3604	-3.3878
0.3608	-3.44983
0.3612	-3.51195
0.3616	-3.57415
0.362	-3.6364
0.3624	-3.6987
0.3628	-3.76104
0.3632	-3.8234
0.3636	-3.88576
0.364	-3.94812
0.3644	-4.01046
0.3648	-4.07275
0.3652	-4.135
0.3656	-4.19719
0.366	-4.25929
0.3664	-4.3213
0.3668	-4.3832
0.3672	-4.44498
0.3676	-4.50662
0.368	-4.5681
0.3684	-4.62941
0.3688	-4.69054
0.3692	-4.75147
0.3696	-4.81218
0.37	-4.87267
0.3704	-4.9329
0.3708	-4.99288
0.3712	-5.05259
0.3716	-5.112
0.372	-5.17111
0.3724	-5.2299
0.3728	-5.28835
0.3732	-5.34646
0.3736	-5.4042
0.374	-5.46157
0.3744	-5.51855
0.3748	-5.57512
0.3752	-5.63128
0.3756	-5.68701
0.376	-5.74229
0.3764	-5.79711
0.3768	-5.85147
0.3772	-5.90534
0.3776	-5.95872
0.378	-6.0116
0.3784	-6.06396
0.3788	-6.11579
0.3792	-6.16709
0.3796	-6.21784
0.38	-6.26802
0.3804	-6.31765
0.3808	-6.36669
0.3812	-6.41515
0.3816	-6.46301
0.382	-6.51028
0.3824	-6.55693
0.3828	-6.60296
0.3832	-6.64837
0.3836	-6.69315
0.384	-6.73729
0.3844	-6.78079
0.3848	-6.82364
0.3852	-6.86584
0.3856	-6.90738
0.386	-6.94826
0.3864	-6.98847
0.3868	-7.02801
0.3872	-7.06688
0.3876	-7.10508
0.388	-7.1426
0.3884	-7.17945
0.3888	-7.21561
0.3892	-7.2511
0.3896	-7.2859
0.39	-7.32003
0.3904	-7.35347
0.3908	-7.38624
0.3912	-7.41833
0.3916	-7.44974
0.392	-7.48047
0.3924	-7.51053
0.3928	-7.53992
0.3932	-7.56864
0.3936	-7.59669
0.394	-7.62409
0.3944	-7.65082
0.3948	-7.6769
0.3952	-7.70233
0.3956	-7.72711
0.396	-7.75125
0.3964	-7.77475
0.3968	-7.79762
0.3972	-7.81987
0.3976	-7.84149
0.398	-7.8625
0.3984	-7.88289
0.3988	-7.90269
0.3992	-7.92188
0.3996	-7.94048
0.4	-7.9585
0.4004	-7.97593
0.4008	-7.9928
0.4012	-8.00909
0.4016	-8.02483
0.402	-8.04001
0.4024	-8.05465
0.4028	-8.06875
0.4032	-8.08231
0.4036	-8.09535
0.404	-8.10787
0.4044	-8.11987
0.4048	-8.13137
0.4052	-8.14236
0.4056	-8.15287
0.406	-8.16289
0.4064	-8.17242
0.4068	-8.18148
0.4072	-8.19008
0.4076	-8.19821
0.408	-8.20588
0.4084	-8.21311
0.4088	-8.21989
0.4092	-8.22623
0.4096	-8.23213
0.41	-8.23761
0.4104	-8.24267
0.4108	-8.24731
0.4112	-8.25154
0.4116	-8.25536
0.412	-8.25877
0.4124	-8.26179
0.4128	-8.26441
0.4132	-8.26664
0.4136	-8.26849
0.414	-8.26995
0.4144	-8.27103
0.4148	-8.27174
0.4152	-8.27207
0.4156	-8.27203
0.416	-8.27163
0.4164	-8.27087
0.4168	-8.26974
0.4172	-8.26825
0.4176	-8.26641
0.418	-8.26421
0.4184	-8.26166
0.4188	-8.25876
0.4192	-8.25551
0.4196	-8.25191
0.42	-8.24796
0.4204	-8.24367
0.4208	-8.23903
0.4212	-8.23405
0.4216	-8.22872
0.422	-8.22305
0.4224	-8.21703
0.4228	-8.21068
0.4232	-8.20397
0.4236	-8.19693
0.424	-8.18954
0.4244	-8.18181
0.4248	-8.17372
0.4252	-8.1653
0.4256	-8.15652
0.426	-8.1474
0.4264	-8.13793
0.4268	-8.1281
0.4272	-8.11792
0.4276	-8.10739
0.428	-8.0965
0.4284	-8.08525
0.4288	-8.07364
0.4292	-8.06166
0.4296	-8.04932
0.43	-8.03661
0.4304	-8.02352
0.4308	-8.01007
0.4312	-7.99623
0.4316	-7.98202
0.432	-7.96742
0.4324	-7.95243
0.4328	-7.93705
0.4332	-7.92127
0.4336	-7.9051
0.434	-7.88853
0.4344	-7.87154
0.4348	-7.85415
0.4352	-7.83634
0.4356	-7.81812
0.436	-7.79946
0.4364	-7.78038
0.4368	-7.76087
0.4372	-7.74092
0.4376	-7.72053
0.438	-7.69969
0.4384	-7.6784
0.4388	-7.65666
0.4392	-7.63445
0.4396	-7.61177
0.44	-7.58863
0.4404	-7.56501
0.4408	-7.5409
0.4412	-7.51631
0.4416	-7.49124
0.442	-7.46566
0.4424	-7.43959
0.4428	-7.413
0.4432	-7.38591
0.4436	-7.35831
0.444	-7.33019
0.4444	-7.30154
0.4448	-7.27236
0.4452	-7.24266
0.4456	-7.21241
0.446	-7.18163
0.4464	-7.1503
0.4468	-7.11843
0.4472	-7.086
0.4476	-7.05302
0.448	-7.01948
0.4484	-6.98538
0.4488	-6.95072
0.4492	-6.9155
0.4496	-6.8797
0.45	-6.84334
0.4504	-6.8064
0.4508	-6.7689
0.4512	-6.73082
0.4516	-6.69216
0.452	-6.65293
0.4524	-6.61312
0.4528	-6.57274
0.4532	-6.53178
0.4536	-6.49024
0.454	-6.44814
0.4544	-6.40546
0.4548	-6.3622
0.4552	-6.31838
0.4556	-6.27399
0.456	-6.22904
0.4564	-6.18353
0.4568	-6.13745
0.4572	-6.09083
0.4576	-6.04365
0.458	-5.99593
0.4584	-5.94766
0.4588	-5.89886
0.4592	-5.84952
0.4596	-5.79967
0.46	-5.74929
0.4604	-5.6984
0.4608	-5.647
0.4612	-5.5951
0.4616	-5.54271
0.462	-5.48984
0.4624	-5.43649
0.4628	-5.38268
0.4632	-5.3284
0.4636	-5.27368
0.464	-5.21852
0.4644	-5.16292
0.4648	-5.10691
0.4652	-5.05048
0.4656	-4.99366
0.466	-4.93645
0.4664	-4.87885
0.4668	-4.82089
0.4672	-4.76258
0.4676	-4.70392
0.468	-4.64493
0.4684	-4.58562
0.4688	-4.526
0.4692	-4.46609
0.4696	-4.4059
0.47	-4.34543
0.4704	-4.28471
0.4708	-4.22375
0.4712	-4.16256
0.4716	-4.10115
0.472	-4.03954
0.4724	-3.97773
0.4728	-3.91575
0.4732	-3.85361
0.4736	-3.79132
0.474	-3.7289
0.4744	-3.66636
0.4748	-3.6037
0.4752	-3.54096
0.4756	-3.47814
0.476	-3.41525
0.4764	-3.35231
0.4768	-3.28933
0.4772	-3.22633
0.4776	-3.16332
0.478	-3.10031
0.4784	-3.03732
0.4788	-2.97435
0.4792	-2.91144
0.4796	-2.84858
0.48	-2.78579
0.4804	-2.72308
0.4808	-2.66047
0.4812	-2.59797
0.4816	-2.53559
0.482	-2.47335
0.4824	-2.41125
0.4828	-2.34931
0.4832	-2.28754
0.4836	-2.22595
0.484	-2.16455
0.4844	-2.10336
0.4848	-2.04239
0.4852	-1.98164
0.4856	-1.92113
0.486	-1.86087
0.4864	-1.80087
0.4868	-1.74113
0.4872	-1.68167
0.4876	-1.6225
0.488	-1.56363
0.4884	-1.50507
0.4888	-1.44682
0.4892	-1.38889
0.4896	-1.3313
0.49	-1.27404
0.4904	-1.21714
0.4908	-1.16058
0.4912	-1.1044
0.4916	-1.04858
0.492	-0.993139
0.4924	-0.938082
0.4928	-0.883415
0.4932	-0.829144
0.4936	-0.775275
0.494	-0.721814
0.4944	-0.668765
0.4948	-0.616135
0.4952	-0.563928
0.4956	-0.512148
0.496	-0.4608
0.4964	-0.409889
0.4968	-0.359418
0.4972	-0.30939
0.4976	-0.25981
0.498	-0.21068
0.4984	-0.162004
0.4988	-0.113784
0.4992	-0.0660224
0.4996	-0.0187223
0.5	0.0281146
0.5004	0.0744863
0.5008	0.120391
0.5012	0.165828
0.5016	0.210795
0.502	0.255292
0.5024	0.299317
0.5028	0.342869
0.5032	0.38595
0.5036	0.428557
0.504	0.470692
0.5044	0.512353
0.5048	0.553542
0.5052	0.594259
0.5056	0.634505
0.506	0.674279
0.5064	0.713584
0.5068	0.75242
0.5072	0.790789
0.5076	0.828692
0.508	0.86613
0.5084	0.903106
0.5088	0.939621
0.5092	0.975677
0.5096	1.01128
0.51	1.04642
0.5104	1.08111
0.5108	1.11536
0.5112	1.14915
0.5116	1.1825
0.512	1.21541
0.5124	1.24788
0.5128	1.27992
0.5132	1.31152
0.5136	1.34269
0.514	1.37343
0.5144	1.40375
0.5148	1.43365
