# Gnuplot File : external energy of the system 
# 1st Column : time, 2nd : external energy
0.0004	-0.000142871
0.0008	3.13196e-05
0.0012	0.000250322
0.0016	0.000796058
0.002	0.00179581
0.0024	0.00329667
0.0028	0.00531387
0.0032	0.007853
0.0036	0.0109168
0.004	0.0145057
0.0044	0.0186178
0.0048	0.0232479
0.0052	0.0283878
0.0056	0.0340266
0.006	0.0401503
0.0064	0.0467423
0.0068	0.0537835
0.0072	0.0612521
0.0076	0.0691243
0.008	0.0773736
0.0084	0.0859715
0.0088	0.0948874
0.0092	0.104089
0.0096	0.11354
0.01	0.123207
0.0104	0.133049
0.0108	0.143028
0.0112	0.153103
0.0116	0.163231
0.012	0.173369
0.0124	0.183473
0.0128	0.1935
0.0132	0.203403
0.0136	0.213139
0.014	0.222663
0.0144	0.23193
0.0148	0.240897
0.0152	0.249519
0.0156	0.257754
0.016	0.265561
0.0164	0.272898
0.0168	0.279725
0.0172	0.286004
0.0176	0.291695
0.018	0.296762
0.0184	0.301168
0.0188	0.304881
0.0192	0.307864
0.0196	0.310087
0.02	0.311518
0.0204	0.312125
0.0208	0.311881
0.0212	0.310754
0.0216	0.308718
0.022	0.305743
0.0224	0.301802
0.0228	0.296865
0.0232	0.290904
0.0236	0.283889
0.024	0.27579
0.0244	0.266577
0.0248	0.256218
0.0252	0.244684
0.0256	0.231944
0.026	0.217969
0.0264	0.202734
0.0268	0.186215
0.0272	0.168394
0.0276	0.149258
0.028	0.128801
0.0284	0.107023
0.0288	0.083935
0.0292	0.0595555
0.0296	0.0339132
0.03	0.00704713
0.0304	-0.0209943
0.0308	-0.0501529
0.0312	-0.0803618
0.0316	-0.111546
0.032	-0.143624
0.0324	-0.176509
0.0328	-0.21011
0.0332	-0.244332
0.0336	-0.279082
0.034	-0.314265
0.0344	-0.349789
0.0348	-0.385564
0.0352	-0.421507
0.0356	-0.457538
0.036	-0.493584
0.0364	-0.529578
0.0368	-0.565463
0.0372	-0.601187
0.0376	-0.636708
0.038	-0.67199
0.0384	-0.707008
0.0388	-0.741741
0.0392	-0.77618
0.0396	-0.810319
0.04	-0.844163
0.0404	-0.87772
0.0408	-0.911009
0.0412	-0.944049
0.0416	-0.976868
0.042	-1.0095
0.0424	-1.04198
0.0428	-1.07434
0.0432	-1.10664
0.0436	-1.13891
0.044	-1.17121
0.0444	-1.20358
0.0448	-1.23609
0.0452	-1.26877
0.0456	-1.30169
0.046	-1.3349
0.0464	-1.36845
0.0468	-1.40239
0.0472	-1.43678
0.0476	-1.47167
0.048	-1.5071
0.0484	-1.54312
0.0488	-1.57979
0.0492	-1.61713
0.0496	-1.6552
0.05	-1.69403
0.0504	-1.73365
0.0508	-1.77411
0.0512	-1.81542
0.0516	-1.85763
0.052	-1.90075
0.0524	-1.9448
0.0528	-1.98982
0.0532	-2.03581
0.0536	-2.0828
0.054	-2.1308
0.0544	-2.17982
0.0548	-2.22988
0.0552	-2.28098
0.0556	-2.33314
0.056	-2.38635
0.0564	-2.44063
0.0568	-2.49598
0.0572	-2.5524
0.0576	-2.6099
0.058	-2.66846
0.0584	-2.72809
0.0588	-2.78877
0.0592	-2.85051
0.0596	-2.91329
0.06	-2.97709
0.0604	-3.04191
0.0608	-3.10771
0.0612	-3.17448
0.0616	-3.24219
0.062	-3.31081
0.0624	-3.3803
0.0628	-3.45064
0.0632	-3.52177
0.0636	-3.59366
0.064	-3.66627
0.0644	-3.73954
0.0648	-3.81342
0.0652	-3.88788
0.0656	-3.96284
0.066	-4.03827
0.0664	-4.11411
0.0668	-4.19031
0.0672	-4.26682
0.0676	-4.34358
0.068	-4.42056
0.0684	-4.49771
0.0688	-4.57498
0.0692	-4.65235
0.0696	-4.72977
0.07	-4.80721
0.0704	-4.88466
0.0708	-4.96208
0.0712	-5.03946
0.0716	-5.1168
0.072	-5.19407
0.0724	-5.27129
0.0728	-5.34846
0.0732	-5.42558
0.0736	-5.50266
0.074	-5.57973
0.0744	-5.6568
0.0748	-5.7339
0.0752	-5.81106
0.0756	-5.88831
0.076	-5.96568
0.0764	-6.04322
0.0768	-6.12096
0.0772	-6.19894
0.0776	-6.27722
0.078	-6.35582
0.0784	-6.4348
0.0788	-6.51421
0.0792	-6.59408
0.0796	-6.67447
0.08	-6.75541
0.0804	-6.83695
0.0808	-6.91914
0.0812	-7.002
0.0816	-7.08559
0.082	-7.16993
0.0824	-7.25506
0.0828	-7.34101
0.0832	-7.42781
0.0836	-7.51549
0.084	-7.60406
0.0844	-7.69356
0.0848	-7.78399
0.0852	-7.87537
0.0856	-7.96772
0.086	-8.06105
0.0864	-8.15535
0.0868	-8.25064
0.0872	-8.34692
0.0876	-8.44419
0.088	-8.54244
0.0884	-8.64167
0.0888	-8.74188
0.0892	-8.84305
0.0896	-8.94517
0.09	-9.04824
0.0904	-9.15223
0.0908	-9.25712
0.0912	-9.36291
0.0916	-9.46957
0.092	-9.57707
0.0924	-9.6854
0.0928	-9.79454
0.0932	-9.90444
0.0936	-10.0151
0.094	-10.1265
0.0944	-10.2385
0.0948	-10.3513
0.0952	-10.4646
0.0956	-10.5786
0.096	-10.6931
0.0964	-10.8081
0.0968	-10.9236
0.0972	-11.0396
0.0976	-11.156
0.098	-11.2729
0.0984	-11.39
0.0988	-11.5075
0.0992	-11.6253
0.0996	-11.7434
0.1	-11.8617
0.1004	-11.9802
0.1008	-12.0989
0.1012	-12.2178
0.1016	-12.3368
0.102	-12.4559
0.1024	-12.5751
0.1028	-12.6945
0.1032	-12.8139
0.1036	-12.9333
0.104	-13.0529
0.1044	-13.1725
0.1048	-13.2922
0.1052	-13.412
0.1056	-13.5318
0.106	-13.6518
0.1064	-13.7718
0.1068	-13.892
0.1072	-14.0124
0.1076	-14.1329
0.108	-14.2535
0.1084	-14.3744
0.1088	-14.4956
0.1092	-14.617
0.1096	-14.7388
0.11	-14.8608
0.1104	-14.9833
0.1108	-15.1061
0.1112	-15.2294
0.1116	-15.3531
0.112	-15.4774
0.1124	-15.6022
0.1128	-15.7276
0.1132	-15.8536
0.1136	-15.9802
0.114	-16.1074
0.1144	-16.2354
0.1148	-16.364
0.1152	-16.4934
0.1156	-16.6236
0.116	-16.7545
0.1164	-16.8863
0.1168	-17.0188
0.1172	-17.1521
0.1176	-17.2863
0.118	-17.4213
0.1184	-17.5572
0.1188	-17.6938
0.1192	-17.8314
0.1196	-17.9697
0.12	-18.1089
0.1204	-18.2489
0.1208	-18.3898
0.1212	-18.5314
0.1216	-18.6738
0.122	-18.817
0.1224	-18.961
0.1228	-19.1057
0.1232	-19.2511
0.1236	-19.3972
0.124	-19.5439
0.1244	-19.6914
0.1248	-19.8394
0.1252	-19.9881
0.1256	-20.1373
0.126	-20.2871
0.1264	-20.4374
0.1268	-20.5882
0.1272	-20.7395
0.1276	-20.8912
0.128	-21.0433
0.1284	-21.1958
0.1288	-21.3487
0.1292	-21.5019
0.1296	-21.6554
0.13	-21.8093
0.1304	-21.9633
0.1308	-22.1176
0.1312	-22.2722
0.1316	-22.4269
0.132	-22.5818
0.1324	-22.7369
0.1328	-22.8921
0.1332	-23.0475
0.1336	-23.203
0.134	-23.3586
0.1344	-23.5142
0.1348	-23.67
0.1352	-23.8259
0.1356	-23.9819
0.136	-24.1379
0.1364	-24.294
0.1368	-24.4502
0.1372	-24.6066
0.1376	-24.763
0.138	-24.9195
0.1384	-25.0762
0.1388	-25.233
0.1392	-25.3899
0.1396	-25.547
0.14	-25.7043
0.1404	-25.8618
0.1408	-26.0195
0.1412	-26.1774
0.1416	-26.3357
0.142	-26.4942
0.1424	-26.653
0.1428	-26.8122
0.1432	-26.9717
0.1436	-27.1316
0.144	-27.2919
0.1444	-27.4527
0.1448	-27.6138
0.1452	-27.7755
0.1456	-27.9377
0.146	-28.1004
0.1464	-28.2636
0.1468	-28.4274
0.1472	-28.5917
0.1476	-28.7566
0.148	-28.9222
0.1484	-29.0883
0.1488	-29.255
0.1492	-29.4224
0.1496	-29.5904
0.15	-29.759
0.1504	-29.9283
0.1508	-30.0982
0.1512	-30.2688
0.1516	-30.4399
0.152	-30.6117
0.1524	-30.7841
0.1528	-30.9572
0.1532	-31.1308
0.1536	-31.3049
0.154	-31.4797
0.1544	-31.655
0.1548	-31.8308
0.1552	-32.0072
0.1556	-32.184
0.156	-32.3614
0.1564	-32.5392
0.1568	-32.7174
0.1572	-32.896
0.1576	-33.075
0.158	-33.2544
0.1584	-33.4341
0.1588	-33.6141
0.1592	-33.7945
0.1596	-33.9751
0.16	-34.1559
0.1604	-34.337
0.1608	-34.5183
0.1612	-34.6998
0.1616	-34.8815
0.162	-35.0633
0.1624	-35.2452
0.1628	-35.4273
0.1632	-35.6095
0.1636	-35.7917
0.164	-35.974
0.1644	-36.1564
0.1648	-36.3388
0.1652	-36.5213
0.1656	-36.7038
0.166	-36.8863
0.1664	-37.0689
0.1668	-37.2514
0.1672	-37.434
0.1676	-37.6166
0.168	-37.7992
0.1684	-37.9819
0.1688	-38.1646
0.1692	-38.3473
0.1696	-38.53
0.17	-38.7128
0.1704	-38.8956
0.1708	-39.0785
0.1712	-39.2615
0.1716	-39.4446
0.172	-39.6278
0.1724	-39.8111
0.1728	-39.9945
0.1732	-40.1781
0.1736	-40.3618
0.174	-40.5457
0.1744	-40.7299
0.1748	-40.9142
0.1752	-41.0988
0.1756	-41.2836
0.176	-41.4687
0.1764	-41.654
0.1768	-41.8397
0.1772	-42.0257
0.1776	-42.212
0.178	-42.3986
0.1784	-42.5856
0.1788	-42.7729
0.1792	-42.9607
0.1796	-43.1488
0.18	-43.3373
0.1804	-43.5262
0.1808	-43.7155
0.1812	-43.9052
0.1816	-44.0953
0.182	-44.2858
0.1824	-44.4767
0.1828	-44.6681
0.1832	-44.8598
0.1836	-45.0519
0.184	-45.2445
0.1844	-45.4374
0.1848	-45.6307
0.1852	-45.8243
0.1856	-46.0183
0.186	-46.2127
0.1864	-46.4074
0.1868	-46.6024
0.1872	-46.7976
0.1876	-46.9932
0.188	-47.189
0.1884	-47.3851
0.1888	-47.5814
0.1892	-47.7779
0.1896	-47.9746
0.19	-48.1715
0.1904	-48.3685
0.1908	-48.5657
0.1912	-48.763
0.1916	-48.9604
0.192	-49.1578
0.1924	-49.3553
0.1928	-49.5529
0.1932	-49.7505
0.1936	-49.9481
0.194	-50.1458
0.1944	-50.3434
0.1948	-50.541
0.1952	-50.7385
0.1956	-50.936
0.196	-51.1335
0.1964	-51.3309
0.1968	-51.5282
0.1972	-51.7254
0.1976	-51.9226
0.198	-52.1197
0.1984	-52.3166
0.1988	-52.5135
0.1992	-52.7103
0.1996	-52.9071
0.2	-53.1037
0.2004	-53.3003
0.2008	-53.4967
0.2012	-53.6931
0.2016	-53.8895
0.202	-54.0857
0.2024	-54.282
0.2028	-54.4782
0.2032	-54.6743
0.2036	-54.8704
0.204	-55.0666
0.2044	-55.2627
0.2048	-55.4588
0.2052	-55.655
0.2056	-55.8512
0.206	-56.0474
0.2064	-56.2437
0.2068	-56.4401
0.2072	-56.6365
0.2076	-56.8331
0.208	-57.0297
0.2084	-57.2265
0.2088	-57.4234
0.2092	-57.6204
0.2096	-57.8176
0.21	-58.015
0.2104	-58.2125
0.2108	-58.4102
0.2112	-58.608
0.2116	-58.8061
0.212	-59.0043
0.2124	-59.2027
0.2128	-59.4013
0.2132	-59.6002
0.2136	-59.7992
0.214	-59.9984
0.2144	-60.1978
0.2148	-60.3974
0.2152	-60.5972
0.2156	-60.7971
0.216	-60.9972
0.2164	-61.1975
0.2168	-61.398
0.2172	-61.5986
0.2176	-61.7994
0.218	-62.0002
0.2184	-62.2012
0.2188	-62.4023
0.2192	-62.6035
0.2196	-62.8048
0.22	-63.0062
0.2204	-63.2076
0.2208	-63.409
0.2212	-63.6105
0.2216	-63.812
0.222	-64.0134
0.2224	-64.2149
0.2228	-64.4163
0.2232	-64.6177
0.2236	-64.819
0.224	-65.0202
0.2244	-65.2213
0.2248	-65.4224
0.2252	-65.6233
0.2256	-65.8241
0.226	-66.0248
0.2264	-66.2253
0.2268	-66.4257
0.2272	-66.6259
0.2276	-66.826
0.228	-67.0259
0.2284	-67.2256
0.2288	-67.4251
0.2292	-67.6244
0.2296	-67.8235
0.23	-68.0225
0.2304	-68.2212
0.2308	-68.4197
0.2312	-68.6181
0.2316	-68.8163
0.232	-69.0142
0.2324	-69.212
0.2328	-69.4096
0.2332	-69.607
0.2336	-69.8043
0.234	-70.0014
0.2344	-70.1983
0.2348	-70.3951
0.2352	-70.5917
0.2356	-70.7882
0.236	-70.9846
0.2364	-71.1808
0.2368	-71.377
0.2372	-71.573
0.2376	-71.769
0.238	-71.9649
0.2384	-72.1607
0.2388	-72.3564
0.2392	-72.5521
0.2396	-72.7477
0.24	-72.9433
0.2404	-73.1389
0.2408	-73.3344
0.2412	-73.53
0.2416	-73.7255
0.242	-73.921
0.2424	-74.1165
0.2428	-74.3121
0.2432	-74.5076
0.2436	-74.7032
0.244	-74.8988
0.2444	-75.0943
0.2448	-75.29
0.2452	-75.4856
0.2456	-75.6812
0.246	-75.8769
0.2464	-76.0726
0.2468	-76.2683
0.2472	-76.464
0.2476	-76.6597
0.248	-76.8554
0.2484	-77.0511
0.2488	-77.2468
0.2492	-77.4424
0.2496	-77.6381
0.25	-77.8337
0.2504	-78.0292
0.2508	-78.2247
0.2512	-78.4201
0.2516	-78.6155
0.252	-78.8107
0.2524	-79.0059
0.2528	-79.2009
0.2532	-79.3959
0.2536	-79.5907
0.254	-79.7854
0.2544	-79.9799
0.2548	-80.1743
0.2552	-80.3684
0.2556	-80.5625
0.256	-80.7563
0.2564	-80.9499
0.2568	-81.1433
0.2572	-81.3365
0.2576	-81.5295
0.258	-81.7223
0.2584	-81.9148
0.2588	-82.107
0.2592	-82.2991
0.2596	-82.4908
0.26	-82.6823
0.2604	-82.8736
0.2608	-83.0646
0.2612	-83.2553
0.2616	-83.4458
0.262	-83.6359
0.2624	-83.8259
0.2628	-84.0155
0.2632	-84.2049
0.2636	-84.3941
0.264	-84.5829
0.2644	-84.7716
0.2648	-84.9599
0.2652	-85.1481
0.2656	-85.3359
0.266	-85.5236
0.2664	-85.711
0.2668	-85.8982
0.2672	-86.0852
0.2676	-86.272
0.268	-86.4585
0.2684	-86.6449
0.2688	-86.8311
0.2692	-87.0171
0.2696	-87.2029
0.27	-87.3886
0.2704	-87.574
0.2708	-87.7594
0.2712	-87.9446
0.2716	-88.1296
0.272	-88.3146
0.2724	-88.4994
0.2728	-88.684
0.2732	-88.8686
0.2736	-89.053
0.274	-89.2373
0.2744	-89.4216
0.2748	-89.6057
0.2752	-89.7897
0.2756	-89.9737
0.276	-90.1575
0.2764	-90.3412
0.2768	-90.5249
0.2772	-90.7084
0.2776	-90.8919
0.278	-91.0753
0.2784	-91.2585
0.2788	-91.4417
0.2792	-91.6248
0.2796	-91.8077
0.28	-91.9906
0.2804	-92.1733
0.2808	-92.3559
0.2812	-92.5384
0.2816	-92.7208
0.282	-92.903
0.2824	-93.0851
0.2828	-93.267
0.2832	-93.4488
0.2836	-93.6304
0.284	-93.8118
0.2844	-93.9931
0.2848	-94.1742
0.2852	-94.3551
0.2856	-94.5357
0.286	-94.7162
0.2864	-94.8965
0.2868	-95.0765
0.2872	-95.2563
0.2876	-95.4359
0.288	-95.6153
0.2884	-95.7944
0.2888	-95.9732
0.2892	-96.1518
0.2896	-96.3302
0.29	-96.5082
0.2904	-96.686
0.2908	-96.8636
0.2912	-97.0408
0.2916	-97.2178
0.292	-97.3945
0.2924	-97.5709
0.2928	-97.7471
0.2932	-97.9229
0.2936	-98.0985
0.294	-98.2738
0.2944	-98.4488
0.2948	-98.6236
0.2952	-98.7981
0.2956	-98.9723
0.296	-99.1462
0.2964	-99.3199
0.2968	-99.4933
0.2972	-99.6664
0.2976	-99.8393
0.298	-100.012
0.2984	-100.184
0.2988	-100.357
0.2992	-100.529
0.2996	-100.7
0.3	-100.872
0.3004	-101.043
0.3008	-101.214
0.3012	-101.385
0.3016	-101.556
0.302	-101.726
0.3024	-101.897
0.3028	-102.067
0.3032	-102.237
0.3036	-102.407
0.304	-102.576
0.3044	-102.746
0.3048	-102.915
0.3052	-103.084
0.3056	-103.253
0.306	-103.422
0.3064	-103.591
0.3068	-103.76
0.3072	-103.928
0.3076	-104.097
0.308	-104.265
0.3084	-104.433
0.3088	-104.601
0.3092	-104.769
0.3096	-104.937
0.31	-105.104
0.3104	-105.272
0.3108	-105.439
0.3112	-105.606
0.3116	-105.773
0.312	-105.94
0.3124	-106.107
0.3128	-106.274
0.3132	-106.44
0.3136	-106.607
0.314	-106.773
0.3144	-106.939
0.3148	-107.105
0.3152	-107.271
0.3156	-107.436
0.316	-107.601
0.3164	-107.767
0.3168	-107.932
0.3172	-108.097
0.3176	-108.261
0.318	-108.426
0.3184	-108.59
0.3188	-108.754
0.3192	-108.918
0.3196	-109.081
0.32	-109.245
0.3204	-109.408
0.3208	-109.571
0.3212	-109.733
0.3216	-109.896
0.322	-110.058
0.3224	-110.22
0.3228	-110.382
0.3232	-110.544
0.3236	-110.705
0.324	-110.866
0.3244	-111.027
0.3248	-111.187
0.3252	-111.348
0.3256	-111.508
0.326	-111.668
0.3264	-111.828
0.3268	-111.987
0.3272	-112.146
0.3276	-112.305
0.328	-112.464
0.3284	-112.623
0.3288	-112.781
0.3292	-112.94
0.3296	-113.098
0.33	-113.255
0.3304	-113.413
0.3308	-113.571
0.3312	-113.728
0.3316	-113.885
0.332	-114.042
0.3324	-114.199
0.3328	-114.355
0.3332	-114.512
0.3336	-114.668
0.334	-114.824
0.3344	-114.98
0.3348	-115.136
0.3352	-115.292
0.3356	-115.448
0.336	-115.603
0.3364	-115.759
0.3368	-115.914
0.3372	-116.069
0.3376	-116.224
0.338	-116.379
0.3384	-116.534
0.3388	-116.689
0.3392	-116.843
0.3396	-116.998
0.34	-117.153
0.3404	-117.307
0.3408	-117.461
0.3412	-117.615
0.3416	-117.77
0.342	-117.924
0.3424	-118.077
0.3428	-118.231
0.3432	-118.385
0.3436	-118.539
0.344	-118.692
0.3444	-118.846
0.3448	-118.999
0.3452	-119.152
0.3456	-119.305
0.346	-119.458
0.3464	-119.611
0.3468	-119.764
0.3472	-119.917
0.3476	-120.069
0.348	-120.222
0.3484	-120.374
0.3488	-120.526
0.3492	-120.678
0.3496	-120.83
0.35	-120.982
0.3504	-121.134
0.3508	-121.285
0.3512	-121.437
0.3516	-121.588
0.352	-121.739
0.3524	-121.89
0.3528	-122.041
0.3532	-122.192
0.3536	-122.342
0.354	-122.493
0.3544	-122.643
0.3548	-122.793
0.3552	-122.943
0.3556	-123.092
0.356	-123.242
0.3564	-123.392
0.3568	-123.541
0.3572	-123.69
0.3576	-123.839
0.358	-123.988
0.3584	-124.137
0.3588	-124.285
0.3592	-124.434
0.3596	-124.582
0.36	-124.73
0.3604	-124.879
0.3608	-125.027
0.3612	-125.174
0.3616	-125.322
0.362	-125.47
0.3624	-125.617
0.3628	-125.765
0.3632	-125.912
0.3636	-126.059
0.364	-126.206
0.3644	-126.354
0.3648	-126.501
0.3652	-126.647
0.3656	-126.794
0.366	-126.941
0.3664	-127.088
0.3668	-127.234
0.3672	-127.381
0.3676	-127.527
0.368	-127.674
0.3684	-127.82
0.3688	-127.966
0.3692	-128.113
0.3696	-128.259
0.37	-128.405
0.3704	-128.551
0.3708	-128.697
0.3712	-128.844
0.3716	-128.99
0.372	-129.136
0.3724	-129.282
0.3728	-129.427
0.3732	-129.573
0.3736	-129.719
0.374	-129.865
0.3744	-130.011
0.3748	-130.157
0.3752	-130.302
0.3756	-130.448
0.376	-130.594
0.3764	-130.739
0.3768	-130.885
0.3772	-131.03
0.3776	-131.176
0.378	-131.321
0.3784	-131.466
0.3788	-131.612
0.3792	-131.757
0.3796	-131.902
0.38	-132.047
0.3804	-132.192
0.3808	-132.337
0.3812	-132.482
0.3816	-132.627
0.382	-132.772
0.3824	-132.917
0.3828	-133.061
0.3832	-133.206
0.3836	-133.351
0.384	-133.495
0.3844	-133.639
0.3848	-133.784
0.3852	-133.928
0.3856	-134.072
0.386	-134.216
0.3864	-134.36
0.3868	-134.504
0.3872	-134.648
0.3876	-134.792
0.388	-134.935
0.3884	-135.079
0.3888	-135.223
0.3892	-135.366
0.3896	-135.509
0.39	-135.653
0.3904	-135.796
0.3908	-135.939
0.3912	-136.082
0.3916	-136.225
0.392	-136.368
0.3924	-136.511
0.3928	-136.654
0.3932	-136.797
0.3936	-136.939
0.394	-137.082
0.3944	-137.225
0.3948	-137.367
0.3952	-137.51
0.3956	-137.652
0.396	-137.795
0.3964	-137.937
0.3968	-138.079
0.3972	-138.222
0.3976	-138.364
0.398	-138.506
0.3984	-138.648
0.3988	-138.791
0.3992	-138.933
0.3996	-139.075
0.4	-139.217
0.4004	-139.359
0.4008	-139.501
0.4012	-139.643
0.4016	-139.785
0.402	-139.927
0.4024	-140.069
0.4028	-140.211
0.4032	-140.353
0.4036	-140.495
0.404	-140.637
0.4044	-140.779
0.4048	-140.921
0.4052	-141.063
0.4056	-141.205
0.406	-141.347
0.4064	-141.488
0.4068	-141.63
0.4072	-141.772
0.4076	-141.914
0.408	-142.055
0.4084	-142.197
0.4088	-142.339
0.4092	-142.48
0.4096	-142.622
0.41	-142.764
0.4104	-142.905
0.4108	-143.047
0.4112	-143.188
0.4116	-143.33
0.412	-143.471
0.4124	-143.612
0.4128	-143.753
0.4132	-143.895
0.4136	-144.036
0.414	-144.177
0.4144	-144.318
0.4148	-144.459
0.4152	-144.6
0.4156	-144.741
0.416	-144.882
0.4164	-145.022
0.4168	-145.163
0.4172	-145.304
0.4176	-145.444
0.418	-145.585
0.4184	-145.725
0.4188	-145.865
0.4192	-146.006
0.4196	-146.146
0.42	-146.286
0.4204	-146.426
0.4208	-146.566
0.4212	-146.706
0.4216	-146.845
0.422	-146.985
0.4224	-147.125
0.4228	-147.264
0.4232	-147.404
0.4236	-147.543
0.424	-147.683
0.4244	-147.822
0.4248	-147.961
0.4252	-148.1
0.4256	-148.239
0.426	-148.378
0.4264	-148.517
0.4268	-148.656
0.4272	-148.794
0.4276	-148.933
0.428	-149.072
0.4284	-149.21
0.4288	-149.349
0.4292	-149.487
0.4296	-149.625
0.43	-149.764
0.4304	-149.902
0.4308	-150.04
0.4312	-150.178
0.4316	-150.316
0.432	-150.454
0.4324	-150.592
0.4328	-150.73
0.4332	-150.867
0.4336	-151.005
0.434	-151.142
0.4344	-151.28
0.4348	-151.417
0.4352	-151.555
0.4356	-151.692
0.436	-151.829
0.4364	-151.966
0.4368	-152.103
0.4372	-152.24
0.4376	-152.377
0.438	-152.514
0.4384	-152.651
0.4388	-152.787
0.4392	-152.924
0.4396	-153.06
0.44	-153.197
0.4404	-153.333
0.4408	-153.469
0.4412	-153.605
0.4416	-153.741
0.442	-153.877
0.4424	-154.013
0.4428	-154.149
0.4432	-154.284
0.4436	-154.419
0.444	-154.555
0.4444	-154.69
0.4448	-154.825
0.4452	-154.96
0.4456	-155.095
0.446	-155.229
0.4464	-155.364
0.4468	-155.498
0.4472	-155.633
0.4476	-155.767
0.448	-155.901
0.4484	-156.035
0.4488	-156.168
0.4492	-156.302
0.4496	-156.435
0.45	-156.568
0.4504	-156.701
0.4508	-156.834
0.4512	-156.967
0.4516	-157.1
0.452	-157.232
0.4524	-157.364
0.4528	-157.497
0.4532	-157.629
0.4536	-157.76
0.454	-157.892
0.4544	-158.023
0.4548	-158.155
0.4552	-158.286
0.4556	-158.417
0.456	-158.547
0.4564	-158.678
0.4568	-158.808
0.4572	-158.939
0.4576	-159.069
0.458	-159.199
0.4584	-159.328
0.4588	-159.458
0.4592	-159.587
0.4596	-159.716
0.46	-159.845
0.4604	-159.974
0.4608	-160.103
0.4612	-160.231
0.4616	-160.359
0.462	-160.487
0.4624	-160.615
0.4628	-160.743
0.4632	-160.87
0.4636	-160.997
0.464	-161.125
0.4644	-161.251
0.4648	-161.378
0.4652	-161.505
0.4656	-161.631
0.466	-161.757
0.4664	-161.883
0.4668	-162.008
0.4672	-162.134
0.4676	-162.259
0.468	-162.384
0.4684	-162.509
0.4688	-162.634
0.4692	-162.758
0.4696	-162.882
0.47	-163.006
0.4704	-163.13
0.4708	-163.253
0.4712	-163.377
0.4716	-163.5
0.472	-163.623
0.4724	-163.745
0.4728	-163.867
0.4732	-163.989
0.4736	-164.111
0.474	-164.233
0.4744	-164.354
0.4748	-164.475
0.4752	-164.596
0.4756	-164.717
0.476	-164.837
0.4764	-164.957
0.4768	-165.077
0.4772	-165.196
0.4776	-165.315
0.478	-165.434
0.4784	-165.553
0.4788	-165.671
0.4792	-165.789
0.4796	-165.907
0.48	-166.025
0.4804	-166.142
0.4808	-166.259
0.4812	-166.375
0.4816	-166.491
0.482	-166.607
0.4824	-166.723
0.4828	-166.839
0.4832	-166.954
0.4836	-167.068
0.484	-167.183
0.4844	-167.297
0.4848	-167.411
0.4852	-167.524
0.4856	-167.637
0.486	-167.75
0.4864	-167.863
0.4868	-167.975
0.4872	-168.087
0.4876	-168.198
0.488	-168.309
0.4884	-168.42
0.4888	-168.531
0.4892	-168.641
0.4896	-168.751
0.49	-168.86
0.4904	-168.969
0.4908	-169.078
0.4912	-169.186
0.4916	-169.294
0.492	-169.402
0.4924	-169.51
0.4928	-169.617
0.4932	-169.723
0.4936	-169.83
0.494	-169.936
0.4944	-170.041
0.4948	-170.146
0.4952	-170.251
0.4956	-170.356
0.496	-170.46
0.4964	-170.564
0.4968	-170.667
0.4972	-170.77
0.4976	-170.873
0.498	-170.975
0.4984	-171.077
0.4988	-171.178
0.4992	-171.28
0.4996	-171.38
0.5	-171.481
0.5004	-171.581
0.5008	-171.68
0.5012	-171.779
0.5016	-171.878
0.502	-171.977
0.5024	-172.075
0.5028	-172.172
0.5032	-172.269
0.5036	-172.366
0.504	-172.463
0.5044	-172.558
0.5048	-172.654
0.5052	-172.749
0.5056	-172.844
0.506	-172.938
0.5064	-173.032
0.5068	-173.125
0.5072	-173.218
