# Gnuplot File : external energy of the system 
# 1st Column : time, 2nd : external energy
0.0004	0.0105314
0.0008	0.0182188
0.0012	0.0326339
0.0016	0.0514772
0.002	0.0720483
0.0024	0.0924664
0.0028	0.111814
0.0032	0.129962
0.0036	0.147251
0.004	0.164156
0.0044	0.181046
0.0048	0.198083
0.0052	0.215239
0.0056	0.232389
0.006	0.249403
0.0064	0.266202
0.0068	0.282773
0.0072	0.299142
0.0076	0.315351
0.008	0.331431
0.0084	0.347394
0.0088	0.36324
0.0092	0.378958
0.0096	0.39454
0.01	0.409984
0.0104	0.425291
0.0108	0.440464
0.0112	0.455509
0.0116	0.470429
0.012	0.485225
0.0124	0.499899
0.0128	0.514449
0.0132	0.528876
0.0136	0.543181
0.014	0.557363
0.0144	0.571426
0.0148	0.585369
0.0152	0.599195
0.0156	0.612904
0.016	0.626497
0.0164	0.639975
0.0168	0.653339
0.0172	0.66659
0.0176	0.679728
0.018	0.692754
0.0184	0.705668
0.0188	0.718473
0.0192	0.731167
0.0196	0.743751
0.02	0.756227
0.0204	0.768594
0.0208	0.780853
0.0212	0.793005
0.0216	0.80505
0.022	0.816989
0.0224	0.828821
0.0228	0.840548
0.0232	0.852169
0.0236	0.863686
0.024	0.875098
0.0244	0.886405
0.0248	0.897609
0.0252	0.908707
0.0256	0.919702
0.026	0.930593
0.0264	0.94138
0.0268	0.952062
0.0272	0.962641
0.0276	0.973115
0.028	0.983484
0.0284	0.993749
0.0288	1.00391
0.0292	1.01396
0.0296	1.02391
0.03	1.03376
0.0304	1.04349
0.0308	1.05312
0.0312	1.06265
0.0316	1.07206
0.032	1.08137
0.0324	1.09056
0.0328	1.09965
0.0332	1.10863
0.0336	1.11749
0.034	1.12624
0.0344	1.13488
0.0348	1.14341
0.0352	1.15181
0.0356	1.16011
0.036	1.16828
0.0364	1.17633
0.0368	1.18426
0.0372	1.19207
0.0376	1.19976
0.038	1.20732
0.0384	1.21475
0.0388	1.22205
0.0392	1.22922
0.0396	1.23626
0.04	1.24316
0.0404	1.24992
0.0408	1.25654
0.0412	1.26302
0.0416	1.26936
0.042	1.27554
0.0424	1.28157
0.0428	1.28745
0.0432	1.29317
0.0436	1.29873
0.044	1.30412
0.0444	1.30935
0.0448	1.31441
0.0452	1.31929
0.0456	1.32399
0.046	1.32851
0.0464	1.33285
0.0468	1.33699
0.0472	1.34094
0.0476	1.34469
0.048	1.34823
0.0484	1.35157
0.0488	1.35469
0.0492	1.3576
0.0496	1.36028
0.05	1.36273
0.0504	1.36495
0.0508	1.36694
0.0512	1.36868
0.0516	1.37017
0.052	1.3714
0.0524	1.37238
0.0528	1.37309
0.0532	1.37353
0.0536	1.3737
0.054	1.37358
0.0544	1.37318
0.0548	1.37249
0.0552	1.3715
0.0556	1.37021
0.056	1.36861
0.0564	1.3667
0.0568	1.36447
0.0572	1.36192
0.0576	1.35904
0.058	1.35582
0.0584	1.35228
0.0588	1.34838
0.0592	1.34415
0.0596	1.33956
0.06	1.33461
0.0604	1.32931
0.0608	1.32364
0.0612	1.3176
0.0616	1.31119
0.062	1.30441
0.0624	1.29724
0.0628	1.28969
0.0632	1.28175
0.0636	1.27341
0.064	1.26468
0.0644	1.25555
0.0648	1.24602
0.0652	1.23608
0.0656	1.22573
0.066	1.21497
0.0664	1.20378
0.0668	1.19218
0.0672	1.18015
0.0676	1.1677
0.068	1.15481
0.0684	1.14149
0.0688	1.12773
0.0692	1.11354
0.0696	1.0989
0.07	1.08381
0.0704	1.06827
0.0708	1.05228
0.0712	1.03584
0.0716	1.01894
0.072	1.00158
0.0724	0.983751
0.0728	0.965461
0.0732	0.946704
0.0736	0.927478
0.074	0.907779
0.0744	0.887606
0.0748	0.866957
0.0752	0.84583
0.0756	0.824223
0.076	0.802135
0.0764	0.779564
0.0768	0.756509
0.0772	0.732968
0.0776	0.708941
0.078	0.684426
0.0784	0.659422
0.0788	0.633929
0.0792	0.607946
0.0796	0.581474
0.08	0.554511
0.0804	0.527058
0.0808	0.499115
0.0812	0.470682
0.0816	0.44176
0.082	0.41235
0.0824	0.382453
0.0828	0.35207
0.0832	0.321202
0.0836	0.289852
0.084	0.258021
0.0844	0.225712
0.0848	0.192928
0.0852	0.15967
0.0856	0.125943
0.086	0.0917496
0.0864	0.057094
0.0868	0.0219802
0.0872	-0.0135872
0.0876	-0.0496035
0.088	-0.0860634
0.0884	-0.122961
0.0888	-0.160291
0.0892	-0.198047
0.0896	-0.236221
0.09	-0.274807
0.0904	-0.313797
0.0908	-0.353183
0.0912	-0.392957
0.0916	-0.433109
0.092	-0.47363
0.0924	-0.514511
0.0928	-0.555741
0.0932	-0.597309
0.0936	-0.639205
0.094	-0.681416
0.0944	-0.723931
0.0948	-0.766738
0.0952	-0.809823
0.0956	-0.853173
0.096	-0.896775
0.0964	-0.940615
0.0968	-0.984678
0.0972	-1.02895
0.0976	-1.07342
0.098	-1.11806
0.0984	-1.16287
0.0988	-1.20783
0.0992	-1.25291
0.0996	-1.29812
0.1	-1.34342
0.1004	-1.38881
0.1008	-1.43427
0.1012	-1.47978
0.1016	-1.52533
0.102	-1.5709
0.1024	-1.61648
0.1028	-1.66205
0.1032	-1.70759
0.1036	-1.7531
0.104	-1.79856
0.1044	-1.84395
0.1048	-1.88926
0.1052	-1.93448
0.1056	-1.9796
0.106	-2.0246
0.1064	-2.06948
0.1068	-2.11423
0.1072	-2.15883
0.1076	-2.20328
0.108	-2.24756
0.1084	-2.29168
0.1088	-2.33563
0.1092	-2.37939
0.1096	-2.42297
0.11	-2.46636
0.1104	-2.50956
0.1108	-2.55256
0.1112	-2.59536
0.1116	-2.63796
0.112	-2.68035
0.1124	-2.72254
0.1128	-2.76453
0.1132	-2.80632
0.1136	-2.8479
0.114	-2.88928
0.1144	-2.93045
0.1148	-2.97143
0.1152	-3.0122
0.1156	-3.05278
0.116	-3.09317
0.1164	-3.13336
0.1168	-3.17336
0.1172	-3.21317
0.1176	-3.25279
0.118	-3.29223
0.1184	-3.33148
0.1188	-3.37055
0.1192	-3.40944
0.1196	-3.44816
0.12	-3.48669
0.1204	-3.52505
0.1208	-3.56323
0.1212	-3.60124
0.1216	-3.63908
0.122	-3.67674
0.1224	-3.71424
0.1228	-3.75156
0.1232	-3.78871
0.1236	-3.82569
0.124	-3.8625
0.1244	-3.89914
0.1248	-3.93561
0.1252	-3.97191
0.1256	-4.00803
0.126	-4.04399
0.1264	-4.07978
0.1268	-4.1154
0.1272	-4.15085
0.1276	-4.18612
0.128	-4.22123
0.1284	-4.25616
0.1288	-4.29093
0.1292	-4.32553
0.1296	-4.35995
0.13	-4.39421
0.1304	-4.42829
0.1308	-4.46221
0.1312	-4.49596
0.1316	-4.52955
0.132	-4.56296
0.1324	-4.59621
0.1328	-4.6293
0.1332	-4.66222
0.1336	-4.69498
0.134	-4.72757
0.1344	-4.76001
0.1348	-4.79228
0.1352	-4.8244
0.1356	-4.85637
0.136	-4.88818
0.1364	-4.91983
0.1368	-4.95134
0.1372	-4.98269
0.1376	-5.0139
0.138	-5.04497
0.1384	-5.07589
0.1388	-5.10667
0.1392	-5.13732
0.1396	-5.16783
0.14	-5.1982
0.1404	-5.22845
0.1408	-5.25857
0.1412	-5.28857
0.1416	-5.31844
0.142	-5.3482
0.1424	-5.37784
0.1428	-5.40737
0.1432	-5.43679
0.1436	-5.4661
0.144	-5.49531
0.1444	-5.52443
0.1448	-5.55345
0.1452	-5.58238
0.1456	-5.61122
0.146	-5.63998
0.1464	-5.66866
0.1468	-5.69726
0.1472	-5.72579
0.1476	-5.75426
0.148	-5.78265
0.1484	-5.81099
0.1488	-5.83928
0.1492	-5.86751
0.1496	-5.89569
0.15	-5.92383
0.1504	-5.95194
0.1508	-5.98
0.1512	-6.00804
0.1516	-6.03605
0.152	-6.06403
0.1524	-6.092
0.1528	-6.11995
0.1532	-6.1479
0.1536	-6.17583
0.154	-6.20377
0.1544	-6.2317
0.1548	-6.25964
0.1552	-6.28759
0.1556	-6.31556
0.156	-6.34354
0.1564	-6.37154
0.1568	-6.39956
0.1572	-6.42761
0.1576	-6.4557
0.158	-6.48381
0.1584	-6.51197
0.1588	-6.54016
0.1592	-6.5684
0.1596	-6.59668
0.16	-6.62501
0.1604	-6.6534
0.1608	-6.68184
0.1612	-6.71033
0.1616	-6.73889
0.162	-6.7675
0.1624	-6.79618
0.1628	-6.82493
0.1632	-6.85374
0.1636	-6.88262
0.164	-6.91157
0.1644	-6.94059
0.1648	-6.96968
0.1652	-6.99885
0.1656	-7.02809
0.166	-7.05741
0.1664	-7.08681
0.1668	-7.11628
0.1672	-7.14583
0.1676	-7.17546
0.168	-7.20516
0.1684	-7.23494
0.1688	-7.2648
0.1692	-7.29474
0.1696	-7.32475
0.17	-7.35484
0.1704	-7.385
0.1708	-7.41524
0.1712	-7.44555
0.1716	-7.47593
0.172	-7.50638
0.1724	-7.5369
0.1728	-7.56749
0.1732	-7.59814
0.1736	-7.62885
0.174	-7.65963
0.1744	-7.69046
0.1748	-7.72134
0.1752	-7.75228
0.1756	-7.78327
0.176	-7.8143
0.1764	-7.84538
0.1768	-7.87649
0.1772	-7.90764
0.1776	-7.93883
0.178	-7.97003
0.1784	-8.00127
0.1788	-8.03252
0.1792	-8.06378
0.1796	-8.09505
0.18	-8.12633
0.1804	-8.1576
0.1808	-8.18887
0.1812	-8.22012
0.1816	-8.25136
0.182	-8.28257
0.1824	-8.31375
0.1828	-8.34489
0.1832	-8.37599
0.1836	-8.40704
0.184	-8.43803
0.1844	-8.46895
0.1848	-8.4998
0.1852	-8.53057
0.1856	-8.56125
0.186	-8.59184
0.1864	-8.62232
0.1868	-8.65269
0.1872	-8.68293
0.1876	-8.71305
0.188	-8.74303
0.1884	-8.77286
0.1888	-8.80254
0.1892	-8.83204
0.1896	-8.86138
0.19	-8.89053
0.1904	-8.91948
0.1908	-8.94823
0.1912	-8.97677
0.1916	-9.00509
0.192	-9.03317
0.1924	-9.06101
0.1928	-9.0886
0.1932	-9.11592
0.1936	-9.14298
0.194	-9.16975
0.1944	-9.19623
0.1948	-9.22241
0.1952	-9.24828
0.1956	-9.27382
0.196	-9.29904
0.1964	-9.32391
0.1968	-9.34844
0.1972	-9.37261
0.1976	-9.39641
0.198	-9.41983
0.1984	-9.44287
0.1988	-9.46552
0.1992	-9.48776
0.1996	-9.5096
0.2	-9.53102
0.2004	-9.55201
0.2008	-9.57257
0.2012	-9.59269
0.2016	-9.61237
0.202	-9.63159
0.2024	-9.65036
0.2028	-9.66867
0.2032	-9.6865
0.2036	-9.70386
0.204	-9.72075
0.2044	-9.73715
0.2048	-9.75306
0.2052	-9.76849
0.2056	-9.78342
0.206	-9.79786
0.2064	-9.8118
0.2068	-9.82525
0.2072	-9.83819
0.2076	-9.85063
0.208	-9.86257
0.2084	-9.874
0.2088	-9.88494
0.2092	-9.89537
0.2096	-9.9053
0.21	-9.91473
0.2104	-9.92366
0.2108	-9.9321
0.2112	-9.94004
0.2116	-9.94749
0.212	-9.95444
0.2124	-9.96092
0.2128	-9.9669
0.2132	-9.97241
0.2136	-9.97744
0.214	-9.982
0.2144	-9.98609
0.2148	-9.98971
0.2152	-9.99287
0.2156	-9.99558
0.216	-9.99783
0.2164	-9.99964
0.2168	-10.001
0.2172	-10.0019
0.2176	-10.0024
0.218	-10.0025
0.2184	-10.0021
0.2188	-10.0013
0.2192	-10.0001
0.2196	-9.99854
0.22	-9.99653
0.2204	-9.99412
0.2208	-9.99131
0.2212	-9.98811
0.2216	-9.98452
0.222	-9.98056
0.2224	-9.97621
0.2228	-9.97149
0.2232	-9.9664
0.2236	-9.96094
0.224	-9.95512
0.2244	-9.94895
0.2248	-9.94242
0.2252	-9.93554
0.2256	-9.92831
0.226	-9.92074
0.2264	-9.91283
0.2268	-9.90459
0.2272	-9.89602
0.2276	-9.88711
0.228	-9.87789
0.2284	-9.86834
0.2288	-9.85847
0.2292	-9.84829
0.2296	-9.8378
0.23	-9.827
0.2304	-9.8159
0.2308	-9.8045
0.2312	-9.7928
0.2316	-9.78081
0.232	-9.76853
0.2324	-9.75597
0.2328	-9.74312
0.2332	-9.73
0.2336	-9.7166
0.234	-9.70293
0.2344	-9.689
0.2348	-9.6748
0.2352	-9.66035
0.2356	-9.64565
0.236	-9.63069
0.2364	-9.61549
0.2368	-9.60005
0.2372	-9.58438
0.2376	-9.56847
0.238	-9.55234
0.2384	-9.53599
0.2388	-9.51942
0.2392	-9.50264
0.2396	-9.48565
0.24	-9.46846
0.2404	-9.45107
0.2408	-9.43349
0.2412	-9.41572
0.2416	-9.39777
0.242	-9.37965
0.2424	-9.36135
0.2428	-9.34289
0.2432	-9.32426
0.2436	-9.30548
0.244	-9.28655
0.2444	-9.26748
0.2448	-9.24827
0.2452	-9.22892
0.2456	-9.20944
0.246	-9.18984
0.2464	-9.17012
0.2468	-9.15028
0.2472	-9.13034
0.2476	-9.11029
0.248	-9.09015
0.2484	-9.06991
0.2488	-9.04959
0.2492	-9.02918
0.2496	-9.00869
0.25	-8.98813
0.2504	-8.96749
0.2508	-8.9468
0.2512	-8.92604
0.2516	-8.90523
0.252	-8.88437
0.2524	-8.86346
0.2528	-8.8425
0.2532	-8.82151
0.2536	-8.80048
0.254	-8.77942
0.2544	-8.75833
0.2548	-8.73722
0.2552	-8.71609
0.2556	-8.69494
0.256	-8.67378
0.2564	-8.6526
0.2568	-8.63141
0.2572	-8.61022
0.2576	-8.58903
0.258	-8.56784
0.2584	-8.54664
0.2588	-8.52545
0.2592	-8.50427
0.2596	-8.48309
0.26	-8.46192
0.2604	-8.44076
0.2608	-8.41961
0.2612	-8.39848
0.2616	-8.37736
0.262	-8.35625
0.2624	-8.33516
0.2628	-8.31408
0.2632	-8.29302
0.2636	-8.27197
0.264	-8.25094
0.2644	-8.22992
0.2648	-8.20892
0.2652	-8.18794
0.2656	-8.16696
0.266	-8.146
0.2664	-8.12505
0.2668	-8.10411
0.2672	-8.08318
0.2676	-8.06226
0.268	-8.04134
0.2684	-8.02043
0.2688	-7.99951
0.2692	-7.9786
0.2696	-7.95768
0.27	-7.93676
0.2704	-7.91583
0.2708	-7.89488
0.2712	-7.87392
0.2716	-7.85295
0.272	-7.83195
0.2724	-7.81093
0.2728	-7.78988
0.2732	-7.7688
0.2736	-7.74769
0.274	-7.72653
0.2744	-7.70533
0.2748	-7.68409
0.2752	-7.66279
0.2756	-7.64143
0.276	-7.62002
0.2764	-7.59854
0.2768	-7.57699
0.2772	-7.55536
0.2776	-7.53365
0.278	-7.51186
0.2784	-7.48998
0.2788	-7.468
0.2792	-7.44592
0.2796	-7.42374
0.28	-7.40144
0.2804	-7.37903
0.2808	-7.35649
0.2812	-7.33383
0.2816	-7.31104
0.282	-7.2881
0.2824	-7.26502
0.2828	-7.24179
0.2832	-7.2184
0.2836	-7.19485
0.284	-7.17113
0.2844	-7.14724
0.2848	-7.12317
0.2852	-7.09892
0.2856	-7.07448
0.286	-7.04983
0.2864	-7.02499
0.2868	-6.99994
0.2872	-6.97468
0.2876	-6.9492
0.288	-6.92349
0.2884	-6.89756
0.2888	-6.87139
0.2892	-6.84498
0.2896	-6.81833
0.29	-6.79143
0.2904	-6.76428
0.2908	-6.73686
0.2912	-6.70919
0.2916	-6.68124
0.292	-6.65303
0.2924	-6.62454
0.2928	-6.59577
0.2932	-6.56671
0.2936	-6.53737
0.294	-6.50774
0.2944	-6.47781
0.2948	-6.44759
0.2952	-6.41707
0.2956	-6.38624
0.296	-6.35511
0.2964	-6.32368
0.2968	-6.29194
0.2972	-6.25989
0.2976	-6.22752
0.298	-6.19485
0.2984	-6.16186
0.2988	-6.12856
0.2992	-6.09494
0.2996	-6.06101
0.3	-6.02677
0.3004	-5.99221
0.3008	-5.95734
0.3012	-5.92215
0.3016	-5.88666
0.302	-5.85086
0.3024	-5.81475
0.3028	-5.77833
0.3032	-5.74161
0.3036	-5.70459
0.304	-5.66727
0.3044	-5.62966
0.3048	-5.59176
0.3052	-5.55356
0.3056	-5.51509
0.306	-5.47633
0.3064	-5.4373
0.3068	-5.39799
0.3072	-5.35842
0.3076	-5.31859
0.308	-5.27849
0.3084	-5.23815
0.3088	-5.19756
0.3092	-5.15673
0.3096	-5.11567
0.31	-5.07437
0.3104	-5.03285
0.3108	-4.99112
0.3112	-4.94917
0.3116	-4.90702
0.312	-4.86467
0.3124	-4.82213
0.3128	-4.77941
0.3132	-4.73651
0.3136	-4.69343
0.314	-4.6502
0.3144	-4.6068
0.3148	-4.56326
0.3152	-4.51957
0.3156	-4.47574
0.316	-4.43179
0.3164	-4.38771
0.3168	-4.34352
0.3172	-4.29922
0.3176	-4.25482
0.318	-4.21033
0.3184	-4.16574
0.3188	-4.12108
0.3192	-4.07634
0.3196	-4.03154
0.32	-3.98667
0.3204	-3.94175
0.3208	-3.89679
0.3212	-3.85178
0.3216	-3.80674
0.322	-3.76168
0.3224	-3.71659
0.3228	-3.67149
0.3232	-3.62638
0.3236	-3.58126
0.324	-3.53615
0.3244	-3.49105
0.3248	-3.44597
0.3252	-3.40091
0.3256	-3.35587
0.326	-3.31087
0.3264	-3.26591
0.3268	-3.22099
0.3272	-3.17613
0.3276	-3.13132
0.328	-3.08657
0.3284	-3.04189
0.3288	-2.99728
0.3292	-2.95275
0.3296	-2.90831
0.33	-2.86395
0.3304	-2.81969
0.3308	-2.77553
0.3312	-2.73148
0.3316	-2.68753
0.332	-2.64371
0.3324	-2.6
0.3328	-2.55642
0.3332	-2.51297
0.3336	-2.46967
0.334	-2.4265
0.3344	-2.38348
0.3348	-2.34062
0.3352	-2.29791
0.3356	-2.25537
0.336	-2.213
0.3364	-2.1708
0.3368	-2.12878
0.3372	-2.08695
0.3376	-2.0453
0.338	-2.00386
0.3384	-1.96261
0.3388	-1.92157
0.3392	-1.88075
0.3396	-1.84013
0.34	-1.79975
0.3404	-1.75958
0.3408	-1.71965
0.3412	-1.67996
0.3416	-1.64051
0.342	-1.6013
0.3424	-1.56235
0.3428	-1.52365
0.3432	-1.48521
0.3436	-1.44705
0.344	-1.40915
0.3444	-1.37152
0.3448	-1.33418
0.3452	-1.29712
0.3456	-1.26035
0.346	-1.22387
0.3464	-1.18768
0.3468	-1.1518
0.3472	-1.11622
0.3476	-1.08095
0.348	-1.04599
0.3484	-1.01135
0.3488	-0.977025
0.3492	-0.943022
0.3496	-0.909344
0.35	-0.875993
0.3504	-0.842973
0.3508	-0.810286
0.3512	-0.777935
0.3516	-0.745922
0.352	-0.714249
0.3524	-0.682919
0.3528	-0.651933
0.3532	-0.621292
0.3536	-0.590999
0.354	-0.561055
0.3544	-0.53146
0.3548	-0.502217
0.3552	-0.473325
0.3556	-0.444786
0.356	-0.4166
0.3564	-0.388768
0.3568	-0.361289
0.3572	-0.334164
0.3576	-0.307392
0.358	-0.280974
0.3584	-0.254908
0.3588	-0.229194
0.3592	-0.203831
0.3596	-0.178819
0.36	-0.154155
0.3604	-0.129839
0.3608	-0.10587
0.3612	-0.0822449
0.3616	-0.0589626
0.362	-0.0360212
0.3624	-0.0134185
0.3628	0.00884767
0.3632	0.0307798
0.3636	0.0523803
0.364	0.073652
0.3644	0.0945975
0.3648	0.11522
0.3652	0.135522
0.3656	0.155508
0.366	0.175179
0.3664	0.194541
0.3668	0.213596
0.3672	0.232348
0.3676	0.2508
0.368	0.268957
0.3684	0.286823
0.3688	0.304401
0.3692	0.321695
0.3696	0.33871
0.37	0.355451
0.3704	0.37192
0.3708	0.388123
0.3712	0.404065
0.3716	0.419749
0.372	0.43518
0.3724	0.450363
0.3728	0.465302
0.3732	0.480002
0.3736	0.494468
0.374	0.508705
0.3744	0.522716
0.3748	0.536507
0.3752	0.550083
0.3756	0.563447
0.376	0.576606
0.3764	0.589564
0.3768	0.602324
0.3772	0.614893
0.3776	0.627275
0.378	0.639473
0.3784	0.651493
0.3788	0.66334
0.3792	0.675017
0.3796	0.68653
0.38	0.697882
0.3804	0.709077
0.3808	0.720121
0.3812	0.731016
0.3816	0.741768
0.382	0.752379
0.3824	0.762855
0.3828	0.773198
0.3832	0.783412
0.3836	0.793501
0.384	0.803468
0.3844	0.813317
0.3848	0.82305
0.3852	0.832671
0.3856	0.842183
0.386	0.851589
0.3864	0.86089
0.3868	0.87009
0.3872	0.879191
0.3876	0.888196
0.388	0.897105
0.3884	0.905922
0.3888	0.914648
0.3892	0.923284
0.3896	0.931832
0.39	0.940293
0.3904	0.948668
0.3908	0.956958
0.3912	0.965164
0.3916	0.973286
0.392	0.981325
0.3924	0.989281
0.3928	0.997154
0.3932	1.00494
0.3936	1.01265
0.394	1.02027
0.3944	1.02781
0.3948	1.03526
0.3952	1.04262
0.3956	1.04989
0.396	1.05708
0.3964	1.06417
0.3968	1.07117
0.3972	1.07807
0.3976	1.08488
0.398	1.09159
0.3984	1.09819
0.3988	1.10469
0.3992	1.11108
0.3996	1.11736
0.4	1.12352
0.4004	1.12957
0.4008	1.1355
0.4012	1.1413
0.4016	1.14697
0.402	1.15251
0.4024	1.15791
0.4028	1.16318
0.4032	1.16829
0.4036	1.17326
0.404	1.17808
0.4044	1.18273
0.4048	1.18722
0.4052	1.19155
0.4056	1.1957
0.406	1.19967
0.4064	1.20346
0.4068	1.20707
0.4072	1.21048
0.4076	1.21369
0.408	1.21669
0.4084	1.21949
0.4088	1.22207
0.4092	1.22444
0.4096	1.22658
0.41	1.22849
0.4104	1.23016
0.4108	1.23159
0.4112	1.23277
0.4116	1.23371
0.412	1.23438
0.4124	1.23479
0.4128	1.23494
0.4132	1.23481
0.4136	1.2344
0.414	1.23371
0.4144	1.23273
0.4148	1.23146
0.4152	1.22989
0.4156	1.22801
0.416	1.22582
0.4164	1.22333
0.4168	1.22051
0.4172	1.21737
0.4176	1.2139
0.418	1.2101
0.4184	1.20597
0.4188	1.20149
0.4192	1.19667
0.4196	1.1915
0.42	1.18598
0.4204	1.1801
0.4208	1.17385
0.4212	1.16725
0.4216	1.16027
0.422	1.15292
0.4224	1.1452
0.4228	1.13709
0.4232	1.12861
0.4236	1.11973
0.424	1.11047
0.4244	1.10082
0.4248	1.09077
0.4252	1.08032
0.4256	1.06948
0.426	1.05822
0.4264	1.04657
0.4268	1.0345
0.4272	1.02202
0.4276	1.00913
0.428	0.995823
0.4284	0.982097
0.4288	0.967951
0.4292	0.953382
0.4296	0.938388
0.43	0.922967
0.4304	0.907119
0.4308	0.89084
0.4312	0.874129
0.4316	0.856984
0.432	0.839404
0.4324	0.821388
0.4328	0.802933
0.4332	0.784039
0.4336	0.764704
0.434	0.744926
0.4344	0.724706
0.4348	0.704042
0.4352	0.682932
0.4356	0.661376
0.436	0.639373
0.4364	0.616922
0.4368	0.594023
0.4372	0.570674
0.4376	0.546877
0.438	0.522629
0.4384	0.497931
0.4388	0.472783
0.4392	0.447184
0.4396	0.421134
0.44	0.394634
0.4404	0.367684
0.4408	0.340283
0.4412	0.312433
0.4416	0.284133
0.442	0.255385
0.4424	0.226189
0.4428	0.196546
0.4432	0.166457
0.4436	0.135923
0.444	0.104945
0.4444	0.0735254
0.4448	0.0416646
0.4452	0.00936461
0.4456	-0.0233728
0.446	-0.0565458
0.4464	-0.0901522
0.4468	-0.12419
0.4472	-0.158657
0.4476	-0.19355
0.448	-0.228867
0.4484	-0.264604
0.4488	-0.300761
0.4492	-0.337332
0.4496	-0.374314
0.45	-0.411705
0.4504	-0.449501
0.4508	-0.487699
0.4512	-0.526293
0.4516	-0.565281
0.452	-0.604658
0.4524	-0.644419
0.4528	-0.684562
0.4532	-0.72508
0.4536	-0.765969
0.454	-0.807224
0.4544	-0.84884
0.4548	-0.890813
0.4552	-0.933136
0.4556	-0.975804
0.456	-1.01881
0.4564	-1.06215
0.4568	-1.10582
0.4572	-1.14982
0.4576	-1.19413
0.458	-1.23875
0.4584	-1.28367
0.4588	-1.32889
0.4592	-1.3744
0.4596	-1.42019
0.46	-1.46627
0.4604	-1.51261
0.4608	-1.55922
0.4612	-1.60608
0.4616	-1.6532
0.462	-1.70055
0.4624	-1.74815
0.4628	-1.79597
0.4632	-1.84401
0.4636	-1.89227
0.464	-1.94073
0.4644	-1.9894
0.4648	-2.03825
0.4652	-2.08729
0.4656	-2.13651
0.466	-2.18589
0.4664	-2.23544
0.4668	-2.28514
0.4672	-2.33499
0.4676	-2.38498
0.468	-2.4351
0.4684	-2.48534
0.4688	-2.53571
0.4692	-2.58618
0.4696	-2.63675
0.47	-2.68742
0.4704	-2.73817
0.4708	-2.78901
0.4712	-2.83992
0.4716	-2.89089
0.472	-2.94192
0.4724	-2.99301
0.4728	-3.04414
0.4732	-3.0953
0.4736	-3.1465
0.474	-3.19773
0.4744	-3.24897
0.4748	-3.30022
0.4752	-3.35147
0.4756	-3.40273
0.476	-3.45397
0.4764	-3.5052
0.4768	-3.55642
0.4772	-3.6076
0.4776	-3.65876
0.478	-3.70987
0.4784	-3.76095
0.4788	-3.81197
0.4792	-3.86295
0.4796	-3.91386
0.48	-3.96471
0.4804	-4.01549
0.4808	-4.0662
0.4812	-4.11683
0.4816	-4.16738
0.482	-4.21784
0.4824	-4.26821
0.4828	-4.31849
0.4832	-4.36867
0.4836	-4.41875
0.484	-4.46872
0.4844	-4.51858
0.4848	-4.56833
0.4852	-4.61796
0.4856	-4.66748
0.486	-4.71687
0.4864	-4.76615
0.4868	-4.81529
0.4872	-4.86431
0.4876	-4.9132
0.488	-4.96196
0.4884	-5.01058
0.4888	-5.05907
0.4892	-5.10742
0.4896	-5.15563
0.49	-5.2037
0.4904	-5.25163
0.4908	-5.29942
0.4912	-5.34707
0.4916	-5.39457
0.492	-5.44194
0.4924	-5.48915
0.4928	-5.53623
0.4932	-5.58316
0.4936	-5.62994
0.494	-5.67658
0.4944	-5.72308
0.4948	-5.76943
0.4952	-5.81565
0.4956	-5.86172
0.496	-5.90764
0.4964	-5.95343
0.4968	-5.99908
0.4972	-6.04459
0.4976	-6.08996
0.498	-6.1352
0.4984	-6.1803
0.4988	-6.22527
0.4992	-6.2701
0.4996	-6.31481
0.5	-6.35938
0.5004	-6.40383
0.5008	-6.44815
0.5012	-6.49235
0.5016	-6.53642
0.502	-6.58038
0.5024	-6.62421
0.5028	-6.66793
0.5032	-6.71153
0.5036	-6.75503
0.504	-6.7984
0.5044	-6.84168
0.5048	-6.88484
0.5052	-6.9279
0.5056	-6.97085
0.506	-7.0137
0.5064	-7.05646
0.5068	-7.09911
0.5072	-7.14167
0.5076	-7.18414
0.508	-7.22652
0.5084	-7.2688
0.5088	-7.311
0.5092	-7.35311
0.5096	-7.39513
0.51	-7.43707
0.5104	-7.47893
0.5108	-7.52071
0.5112	-7.56241
