# Gnuplot File : external energy of the system 
# 1st Column : time, 2nd : external energy
0.0004	0.0102651
0.0008	0.0177419
0.0012	0.0317761
0.0016	0.0501233
0.002	0.070147
0.0024	0.0900107
0.0028	0.108818
0.0032	0.126443
0.0036	0.143219
0.004	0.15961
0.0044	0.175976
0.0048	0.192476
0.0052	0.209082
0.0056	0.225673
0.006	0.242122
0.0064	0.258353
0.0068	0.274352
0.0072	0.290145
0.0076	0.305774
0.008	0.321268
0.0084	0.336641
0.0088	0.351891
0.0092	0.367009
0.0096	0.381987
0.01	0.396823
0.0104	0.411518
0.0108	0.426076
0.0112	0.440502
0.0116	0.4548
0.012	0.468972
0.0124	0.483017
0.0128	0.496936
0.0132	0.51073
0.0136	0.524399
0.014	0.537944
0.0144	0.551366
0.0148	0.564668
0.0152	0.57785
0.0156	0.590914
0.016	0.603861
0.0164	0.616691
0.0168	0.629407
0.0172	0.642008
0.0176	0.654497
0.018	0.666872
0.0184	0.679137
0.0188	0.691291
0.0192	0.703334
0.0196	0.715269
0.02	0.727095
0.0204	0.738814
0.0208	0.750425
0.0212	0.761931
0.0216	0.77333
0.022	0.784625
0.0224	0.795815
0.0228	0.806901
0.0232	0.817884
0.0236	0.828764
0.024	0.839542
0.0244	0.850218
0.0248	0.860793
0.0252	0.871266
0.0256	0.881638
0.026	0.89191
0.0264	0.902081
0.0268	0.912151
0.0272	0.922121
0.0276	0.931991
0.028	0.941761
0.0284	0.95143
0.0288	0.960999
0.0292	0.970468
0.0296	0.979836
0.03	0.989103
0.0304	0.998269
0.0308	1.00733
0.0312	1.0163
0.0316	1.02516
0.032	1.03392
0.0324	1.04257
0.0328	1.05113
0.0332	1.05958
0.0336	1.06792
0.034	1.07616
0.0344	1.08429
0.0348	1.09232
0.0352	1.10023
0.0356	1.10804
0.036	1.11574
0.0364	1.12333
0.0368	1.1308
0.0372	1.13816
0.0376	1.1454
0.038	1.15253
0.0384	1.15954
0.0388	1.16643
0.0392	1.1732
0.0396	1.17984
0.04	1.18635
0.0404	1.19274
0.0408	1.199
0.0412	1.20513
0.0416	1.21112
0.042	1.21697
0.0424	1.22268
0.0428	1.22825
0.0432	1.23367
0.0436	1.23895
0.044	1.24407
0.0444	1.24904
0.0448	1.25384
0.0452	1.25849
0.0456	1.26297
0.046	1.26728
0.0464	1.27142
0.0468	1.27538
0.0472	1.27916
0.0476	1.28275
0.048	1.28615
0.0484	1.28936
0.0488	1.29237
0.0492	1.29518
0.0496	1.29777
0.05	1.30016
0.0504	1.30233
0.0508	1.30427
0.0512	1.30599
0.0516	1.30747
0.052	1.30872
0.0524	1.30972
0.0528	1.31047
0.0532	1.31097
0.0536	1.31121
0.054	1.31119
0.0544	1.3109
0.0548	1.31033
0.0552	1.30949
0.0556	1.30836
0.056	1.30694
0.0564	1.30522
0.0568	1.30321
0.0572	1.30089
0.0576	1.29826
0.058	1.29532
0.0584	1.29206
0.0588	1.28848
0.0592	1.28457
0.0596	1.28033
0.06	1.27575
0.0604	1.27083
0.0608	1.26556
0.0612	1.25995
0.0616	1.25398
0.062	1.24765
0.0624	1.24097
0.0628	1.23392
0.0632	1.2265
0.0636	1.21871
0.064	1.21054
0.0644	1.20199
0.0648	1.19306
0.0652	1.18374
0.0656	1.17403
0.066	1.16393
0.0664	1.15343
0.0668	1.14252
0.0672	1.13122
0.0676	1.11951
0.068	1.10738
0.0684	1.09485
0.0688	1.08189
0.0692	1.06852
0.0696	1.05473
0.07	1.0405
0.0704	1.02585
0.0708	1.01077
0.0712	0.995254
0.0716	0.9793
0.072	0.962907
0.0724	0.946071
0.0728	0.928791
0.0732	0.911064
0.0736	0.892887
0.074	0.874259
0.0744	0.855177
0.0748	0.835639
0.0752	0.815643
0.0756	0.795188
0.076	0.774272
0.0764	0.752893
0.0768	0.73105
0.0772	0.708741
0.0776	0.685966
0.078	0.662722
0.0784	0.63901
0.0788	0.614829
0.0792	0.590177
0.0796	0.565055
0.08	0.539461
0.0804	0.513397
0.0808	0.486862
0.0812	0.459856
0.0816	0.432381
0.082	0.404435
0.0824	0.376021
0.0828	0.34714
0.0832	0.317793
0.0836	0.287981
0.084	0.257706
0.0844	0.226971
0.0848	0.195778
0.0852	0.16413
0.0856	0.132029
0.086	0.0994789
0.0864	0.0664835
0.0868	0.0330465
0.0872	-0.000827793
0.0876	-0.0351348
0.088	-0.0698694
0.0884	-0.105026
0.0888	-0.1406
0.0892	-0.176584
0.0896	-0.212972
0.09	-0.249758
0.0904	-0.286933
0.0908	-0.32449
0.0912	-0.362421
0.0916	-0.400717
0.092	-0.439369
0.0924	-0.478369
0.0928	-0.517705
0.0932	-0.557367
0.0936	-0.597345
0.094	-0.637628
0.0944	-0.678204
0.0948	-0.71906
0.0952	-0.760185
0.0956	-0.801566
0.096	-0.843189
0.0964	-0.88504
0.0968	-0.927107
0.0972	-0.969375
0.0976	-1.01183
0.098	-1.05445
0.0984	-1.09724
0.0988	-1.14016
0.0992	-1.18321
0.0996	-1.22637
0.1	-1.26963
0.1004	-1.31296
0.1008	-1.35636
0.1012	-1.39981
0.1016	-1.4433
0.102	-1.4868
0.1024	-1.5303
0.1028	-1.5738
0.1032	-1.61727
0.1036	-1.6607
0.104	-1.70407
0.1044	-1.74738
0.1048	-1.79061
0.1052	-1.83375
0.1056	-1.87679
0.106	-1.91971
0.1064	-1.96251
0.1068	-2.00518
0.1072	-2.0477
0.1076	-2.09007
0.108	-2.13228
0.1084	-2.17433
0.1088	-2.2162
0.1092	-2.25789
0.1096	-2.2994
0.11	-2.34072
0.1104	-2.38185
0.1108	-2.42278
0.1112	-2.46352
0.1116	-2.50406
0.112	-2.5444
0.1124	-2.58453
0.1128	-2.62447
0.1132	-2.6642
0.1136	-2.70373
0.114	-2.74307
0.1144	-2.7822
0.1148	-2.82113
0.1152	-2.85987
0.1156	-2.89841
0.116	-2.93676
0.1164	-2.97492
0.1168	-3.01289
0.1172	-3.05067
0.1176	-3.08827
0.118	-3.12568
0.1184	-3.16291
0.1188	-3.19996
0.1192	-3.23684
0.1196	-3.27353
0.12	-3.31006
0.1204	-3.34641
0.1208	-3.38258
0.1212	-3.41859
0.1216	-3.45442
0.122	-3.49009
0.1224	-3.52558
0.1228	-3.56091
0.1232	-3.59607
0.1236	-3.63106
0.124	-3.66589
0.1244	-3.70055
0.1248	-3.73504
0.1252	-3.76936
0.1256	-3.80352
0.126	-3.83751
0.1264	-3.87133
0.1268	-3.90499
0.1272	-3.93848
0.1276	-3.9718
0.128	-4.00496
0.1284	-4.03795
0.1288	-4.07077
0.1292	-4.10343
0.1296	-4.13593
0.13	-4.16826
0.1304	-4.20042
0.1308	-4.23242
0.1312	-4.26426
0.1316	-4.29593
0.132	-4.32744
0.1324	-4.35879
0.1328	-4.38999
0.1332	-4.42102
0.1336	-4.45189
0.134	-4.48261
0.1344	-4.51318
0.1348	-4.54359
0.1352	-4.57385
0.1356	-4.60396
0.136	-4.63392
0.1364	-4.66373
0.1368	-4.6934
0.1372	-4.72293
0.1376	-4.75231
0.138	-4.78156
0.1384	-4.81067
0.1388	-4.83965
0.1392	-4.8685
0.1396	-4.89722
0.14	-4.92581
0.1404	-4.95428
0.1408	-4.98264
0.1412	-5.01087
0.1416	-5.03899
0.142	-5.067
0.1424	-5.0949
0.1428	-5.12269
0.1432	-5.15039
0.1436	-5.17799
0.144	-5.20549
0.1444	-5.2329
0.1448	-5.26023
0.1452	-5.28747
0.1456	-5.31464
0.146	-5.34173
0.1464	-5.36874
0.1468	-5.39569
0.1472	-5.42258
0.1476	-5.44941
0.148	-5.47618
0.1484	-5.5029
0.1488	-5.52958
0.1492	-5.55621
0.1496	-5.5828
0.15	-5.60936
0.1504	-5.63589
0.1508	-5.66239
0.1512	-5.68887
0.1516	-5.71533
0.152	-5.74178
0.1524	-5.76823
0.1528	-5.79466
0.1532	-5.8211
0.1536	-5.84754
0.154	-5.87399
0.1544	-5.90045
0.1548	-5.92692
0.1552	-5.95342
0.1556	-5.97994
0.156	-6.00648
0.1564	-6.03306
0.1568	-6.05968
0.1572	-6.08633
0.1576	-6.11302
0.158	-6.13976
0.1584	-6.16655
0.1588	-6.19339
0.1592	-6.22029
0.1596	-6.24724
0.16	-6.27425
0.1604	-6.30133
0.1608	-6.32848
0.1612	-6.3557
0.1616	-6.38298
0.162	-6.41035
0.1624	-6.43779
0.1628	-6.4653
0.1632	-6.4929
0.1636	-6.52058
0.164	-6.54834
0.1644	-6.57619
0.1648	-6.60413
0.1652	-6.63216
0.1656	-6.66027
0.166	-6.68848
0.1664	-6.71678
0.1668	-6.74517
0.1672	-6.77365
0.1676	-6.80223
0.168	-6.8309
0.1684	-6.85966
0.1688	-6.88852
0.1692	-6.91747
0.1696	-6.94652
0.17	-6.97565
0.1704	-7.00488
0.1708	-7.0342
0.1712	-7.06362
0.1716	-7.09312
0.172	-7.12271
0.1724	-7.15239
0.1728	-7.18215
0.1732	-7.212
0.1736	-7.24193
0.174	-7.27193
0.1744	-7.30202
0.1748	-7.33218
0.1752	-7.36241
0.1756	-7.39272
0.176	-7.42309
0.1764	-7.45352
0.1768	-7.48402
0.1772	-7.51457
0.1776	-7.54517
0.178	-7.57583
0.1784	-7.60653
0.1788	-7.63727
0.1792	-7.66805
0.1796	-7.69886
0.18	-7.7297
0.1804	-7.76056
0.1808	-7.79143
0.1812	-7.82232
0.1816	-7.85322
0.182	-7.88411
0.1824	-7.915
0.1828	-7.94588
0.1832	-7.97674
0.1836	-8.00757
0.184	-8.03837
0.1844	-8.06914
0.1848	-8.09986
0.1852	-8.13052
0.1856	-8.16113
0.186	-8.19166
0.1864	-8.22212
0.1868	-8.2525
0.1872	-8.28279
0.1876	-8.31297
0.188	-8.34304
0.1884	-8.373
0.1888	-8.40283
0.1892	-8.43253
0.1896	-8.46208
0.19	-8.49147
0.1904	-8.52071
0.1908	-8.54977
0.1912	-8.57865
0.1916	-8.60734
0.192	-8.63583
0.1924	-8.66411
0.1928	-8.69217
0.1932	-8.72
0.1936	-8.74759
0.194	-8.77494
0.1944	-8.80202
0.1948	-8.82884
0.1952	-8.85538
0.1956	-8.88164
0.196	-8.9076
0.1964	-8.93325
0.1968	-8.95859
0.1972	-8.98361
0.1976	-9.00829
0.198	-9.03264
0.1984	-9.05663
0.1988	-9.08027
0.1992	-9.10354
0.1996	-9.12644
0.2	-9.14896
0.2004	-9.17109
0.2008	-9.19282
0.2012	-9.21416
0.2016	-9.23508
0.202	-9.25559
0.2024	-9.27568
0.2028	-9.29534
0.2032	-9.31457
0.2036	-9.33336
0.204	-9.35172
0.2044	-9.36962
0.2048	-9.38708
0.2052	-9.40409
0.2056	-9.42064
0.206	-9.43673
0.2064	-9.45237
0.2068	-9.46754
0.2072	-9.48224
0.2076	-9.49649
0.208	-9.51027
0.2084	-9.52358
0.2088	-9.53642
0.2092	-9.5488
0.2096	-9.56072
0.21	-9.57217
0.2104	-9.58316
0.2108	-9.59368
0.2112	-9.60375
0.2116	-9.61336
0.212	-9.62252
0.2124	-9.63123
0.2128	-9.63948
0.2132	-9.64729
0.2136	-9.65466
0.214	-9.66159
0.2144	-9.66809
0.2148	-9.67415
0.2152	-9.67979
0.2156	-9.685
0.216	-9.68979
0.2164	-9.69417
0.2168	-9.69814
0.2172	-9.70171
0.2176	-9.70487
0.218	-9.70764
0.2184	-9.71001
0.2188	-9.712
0.2192	-9.7136
0.2196	-9.71483
0.22	-9.71568
0.2204	-9.71616
0.2208	-9.71628
0.2212	-9.71603
0.2216	-9.71543
0.222	-9.71448
0.2224	-9.71317
0.2228	-9.71152
0.2232	-9.70954
0.2236	-9.70721
0.224	-9.70455
0.2244	-9.70156
0.2248	-9.69825
0.2252	-9.69462
0.2256	-9.69066
0.226	-9.6864
0.2264	-9.68182
0.2268	-9.67693
0.2272	-9.67174
0.2276	-9.66625
0.228	-9.66046
0.2284	-9.65437
0.2288	-9.648
0.2292	-9.64133
0.2296	-9.63438
0.23	-9.62716
0.2304	-9.61965
0.2308	-9.61187
0.2312	-9.60381
0.2316	-9.59549
0.232	-9.58691
0.2324	-9.57806
0.2328	-9.56896
0.2332	-9.5596
0.2336	-9.54999
0.234	-9.54014
0.2344	-9.53004
0.2348	-9.51971
0.2352	-9.50914
0.2356	-9.49834
0.236	-9.48731
0.2364	-9.47606
0.2368	-9.46459
0.2372	-9.45291
0.2376	-9.44102
0.238	-9.42892
0.2384	-9.41663
0.2388	-9.40413
0.2392	-9.39145
0.2396	-9.37858
0.24	-9.36552
0.2404	-9.35229
0.2408	-9.33888
0.2412	-9.32531
0.2416	-9.31157
0.242	-9.29768
0.2424	-9.28363
0.2428	-9.26944
0.2432	-9.2551
0.2436	-9.24062
0.244	-9.22601
0.2444	-9.21127
0.2448	-9.19641
0.2452	-9.18143
0.2456	-9.16633
0.246	-9.15113
0.2464	-9.13583
0.2468	-9.12042
0.2472	-9.10492
0.2476	-9.08933
0.248	-9.07366
0.2484	-9.05791
0.2488	-9.04208
0.2492	-9.02619
0.2496	-9.01023
0.25	-8.9942
0.2504	-8.97812
0.2508	-8.96199
0.2512	-8.94581
0.2516	-8.92958
0.252	-8.91332
0.2524	-8.89702
0.2528	-8.88068
0.2532	-8.86432
0.2536	-8.84793
0.254	-8.83153
0.2544	-8.8151
0.2548	-8.79866
0.2552	-8.78221
0.2556	-8.76574
0.256	-8.74928
0.2564	-8.73281
0.2568	-8.71634
0.2572	-8.69987
0.2576	-8.6834
0.258	-8.66695
0.2584	-8.6505
0.2588	-8.63406
0.2592	-8.61763
0.2596	-8.60122
0.26	-8.58482
0.2604	-8.56844
0.2608	-8.55208
0.2612	-8.53573
0.2616	-8.5194
0.262	-8.50309
0.2624	-8.48681
0.2628	-8.47054
0.2632	-8.45429
0.2636	-8.43806
0.264	-8.42185
0.2644	-8.40566
0.2648	-8.38949
0.2652	-8.37334
0.2656	-8.3572
0.266	-8.34108
0.2664	-8.32497
0.2668	-8.30888
0.2672	-8.2928
0.2676	-8.27672
0.268	-8.26066
0.2684	-8.24459
0.2688	-8.22854
0.2692	-8.21248
0.2696	-8.19642
0.27	-8.18036
0.2704	-8.16428
0.2708	-8.1482
0.2712	-8.1321
0.2716	-8.11599
0.272	-8.09986
0.2724	-8.0837
0.2728	-8.06751
0.2732	-8.05129
0.2736	-8.03504
0.274	-8.01874
0.2744	-8.0024
0.2748	-7.98601
0.2752	-7.96957
0.2756	-7.95307
0.276	-7.93651
0.2764	-7.91988
0.2768	-7.90318
0.2772	-7.8864
0.2776	-7.86953
0.278	-7.85258
0.2784	-7.83554
0.2788	-7.8184
0.2792	-7.80115
0.2796	-7.7838
0.28	-7.76633
0.2804	-7.74874
0.2808	-7.73102
0.2812	-7.71317
0.2816	-7.69518
0.282	-7.67705
0.2824	-7.65877
0.2828	-7.64033
0.2832	-7.62174
0.2836	-7.60297
0.284	-7.58403
0.2844	-7.56491
0.2848	-7.54561
0.2852	-7.52611
0.2856	-7.50642
0.286	-7.48653
0.2864	-7.46642
0.2868	-7.4461
0.2872	-7.42556
0.2876	-7.4048
0.288	-7.3838
0.2884	-7.36257
0.2888	-7.34109
0.2892	-7.31937
0.2896	-7.29739
0.29	-7.27515
0.2904	-7.25265
0.2908	-7.22988
0.2912	-7.20684
0.2916	-7.18351
0.292	-7.15991
0.2924	-7.13602
0.2928	-7.11184
0.2932	-7.08736
0.2936	-7.06258
0.294	-7.0375
0.2944	-7.01212
0.2948	-6.98642
0.2952	-6.96041
0.2956	-6.93409
0.296	-6.90745
0.2964	-6.88048
0.2968	-6.8532
0.2972	-6.82559
0.2976	-6.79765
0.298	-6.76938
0.2984	-6.74079
0.2988	-6.71186
0.2992	-6.6826
0.2996	-6.65302
0.3	-6.62309
0.3004	-6.59284
0.3008	-6.56226
0.3012	-6.53134
0.3016	-6.50009
0.302	-6.46852
0.3024	-6.43661
0.3028	-6.40438
0.3032	-6.37183
0.3036	-6.33895
0.304	-6.30575
0.3044	-6.27223
0.3048	-6.2384
0.3052	-6.20426
0.3056	-6.16981
0.306	-6.13505
0.3064	-6.09999
0.3068	-6.06464
0.3072	-6.02899
0.3076	-5.99305
0.308	-5.95683
0.3084	-5.92033
0.3088	-5.88356
0.3092	-5.84651
0.3096	-5.8092
0.31	-5.77163
0.3104	-5.73381
0.3108	-5.69574
0.3112	-5.65743
0.3116	-5.61888
0.312	-5.58011
0.3124	-5.54111
0.3128	-5.50189
0.3132	-5.46246
0.3136	-5.42282
0.314	-5.38299
0.3144	-5.34296
0.3148	-5.30275
0.3152	-5.26236
0.3156	-5.2218
0.316	-5.18107
0.3164	-5.14018
0.3168	-5.09914
0.3172	-5.05795
0.3176	-5.01662
0.318	-4.97516
0.3184	-4.93357
0.3188	-4.89186
0.3192	-4.85003
0.3196	-4.8081
0.32	-4.76607
0.3204	-4.72394
0.3208	-4.68172
0.3212	-4.63942
0.3216	-4.59704
0.322	-4.5546
0.3224	-4.51208
0.3228	-4.46951
0.3232	-4.42689
0.3236	-4.38422
0.324	-4.3415
0.3244	-4.29875
0.3248	-4.25597
0.3252	-4.21317
0.3256	-4.17035
0.326	-4.12751
0.3264	-4.08467
0.3268	-4.04182
0.3272	-3.99898
0.3276	-3.95614
0.328	-3.91332
0.3284	-3.87052
0.3288	-3.82774
0.3292	-3.78499
0.3296	-3.74227
0.33	-3.69959
0.3304	-3.65696
0.3308	-3.61437
0.3312	-3.57184
0.3316	-3.52937
0.332	-3.48697
0.3324	-3.44463
0.3328	-3.40237
0.3332	-3.36019
0.3336	-3.31809
0.334	-3.27608
0.3344	-3.23417
0.3348	-3.19236
0.3352	-3.15065
0.3356	-3.10905
0.336	-3.06757
0.3364	-3.0262
0.3368	-2.98497
0.3372	-2.94386
0.3376	-2.90289
0.338	-2.86206
0.3384	-2.82137
0.3388	-2.78083
0.3392	-2.74045
0.3396	-2.70023
0.34	-2.66017
0.3404	-2.62029
0.3408	-2.58058
0.3412	-2.54105
0.3416	-2.5017
0.342	-2.46254
0.3424	-2.42358
0.3428	-2.38481
0.3432	-2.34625
0.3436	-2.3079
0.344	-2.26976
0.3444	-2.23183
0.3448	-2.19413
0.3452	-2.15665
0.3456	-2.1194
0.346	-2.08238
0.3464	-2.0456
0.3468	-2.00906
0.3472	-1.97277
0.3476	-1.93673
0.348	-1.90093
0.3484	-1.8654
0.3488	-1.83012
0.3492	-1.7951
0.3496	-1.76035
0.35	-1.72586
0.3504	-1.69165
0.3508	-1.65771
0.3512	-1.62405
0.3516	-1.59066
0.352	-1.55755
0.3524	-1.52473
0.3528	-1.49219
0.3532	-1.45993
0.3536	-1.42796
0.354	-1.39628
0.3544	-1.36489
0.3548	-1.33379
0.3552	-1.30299
0.3556	-1.27247
0.356	-1.24225
0.3564	-1.21232
0.3568	-1.18268
0.3572	-1.15334
0.3576	-1.12429
0.358	-1.09554
0.3584	-1.06708
0.3588	-1.03891
0.3592	-1.01103
0.3596	-0.983444
0.36	-0.956147
0.3604	-0.929138
0.3608	-0.902416
0.3612	-0.87598
0.3616	-0.849828
0.362	-0.823958
0.3624	-0.798368
0.3628	-0.773056
0.3632	-0.74802
0.3636	-0.723257
0.364	-0.698765
0.3644	-0.674542
0.3648	-0.650584
0.3652	-0.626889
0.3656	-0.603453
0.366	-0.580274
0.3664	-0.557348
0.3668	-0.534672
0.3672	-0.512243
0.3676	-0.490057
0.368	-0.46811
0.3684	-0.446399
0.3688	-0.42492
0.3692	-0.403669
0.3696	-0.382641
0.37	-0.361834
0.3704	-0.341243
0.3708	-0.320863
0.3712	-0.300692
0.3716	-0.280723
0.372	-0.260953
0.3724	-0.241379
0.3728	-0.221994
0.3732	-0.202796
0.3736	-0.183779
0.374	-0.164939
0.3744	-0.146271
0.3748	-0.127772
0.3752	-0.109437
0.3756	-0.0912605
0.376	-0.073239
0.3764	-0.0553679
0.3768	-0.0376427
0.3772	-0.0200591
0.3776	-0.00261266
0.378	0.0147009
0.3784	0.0318859
0.3788	0.0489466
0.3792	0.0658871
0.3796	0.0827116
0.38	0.0994241
0.3804	0.116029
0.3808	0.132529
0.3812	0.148929
0.3816	0.165233
0.382	0.181444
0.3824	0.197566
0.3828	0.213602
0.3832	0.229556
0.3836	0.24543
0.384	0.261229
0.3844	0.276954
0.3848	0.29261
0.3852	0.308199
0.3856	0.323723
0.386	0.339184
0.3864	0.354587
0.3868	0.369931
0.3872	0.385221
0.3876	0.400457
0.388	0.415641
0.3884	0.430776
0.3888	0.445861
0.3892	0.4609
0.3896	0.475893
0.39	0.49084
0.3904	0.505743
0.3908	0.520603
0.3912	0.535419
0.3916	0.550192
0.392	0.564922
0.3924	0.579609
0.3928	0.594253
0.3932	0.608854
0.3936	0.62341
0.394	0.63792
0.3944	0.652385
0.3948	0.666802
0.3952	0.68117
0.3956	0.695488
0.396	0.709754
0.3964	0.723966
0.3968	0.738122
0.3972	0.75222
0.3976	0.766256
0.398	0.78023
0.3984	0.794137
0.3988	0.807975
0.3992	0.82174
0.3996	0.83543
0.4	0.849041
0.4004	0.862569
0.4008	0.87601
0.4012	0.889361
0.4016	0.902618
0.402	0.915776
0.4024	0.928831
0.4028	0.941779
0.4032	0.954615
0.4036	0.967335
0.404	0.979932
0.4044	0.992404
0.4048	1.00474
0.4052	1.01695
0.4056	1.02901
0.406	1.04093
0.4064	1.05269
0.4068	1.06429
0.4072	1.07574
0.4076	1.08701
0.408	1.09811
0.4084	1.10903
0.4088	1.11977
0.4092	1.13031
0.4096	1.14066
0.41	1.1508
0.4104	1.16074
0.4108	1.17046
0.4112	1.17996
0.4116	1.18924
0.412	1.19828
0.4124	1.20709
0.4128	1.21566
0.4132	1.22398
0.4136	1.23204
0.414	1.23985
0.4144	1.24739
0.4148	1.25466
0.4152	1.26166
0.4156	1.26837
0.416	1.2748
0.4164	1.28094
0.4168	1.28678
0.4172	1.29231
0.4176	1.29754
0.418	1.30246
0.4184	1.30707
0.4188	1.31135
0.4192	1.3153
0.4196	1.31893
0.42	1.32222
0.4204	1.32517
0.4208	1.32777
0.4212	1.33003
0.4216	1.33193
0.422	1.33348
0.4224	1.33467
0.4228	1.33549
0.4232	1.33595
0.4236	1.33603
0.424	1.33573
0.4244	1.33506
0.4248	1.334
0.4252	1.33256
0.4256	1.33073
0.426	1.3285
0.4264	1.32588
0.4268	1.32286
0.4272	1.31943
0.4276	1.3156
0.428	1.31136
0.4284	1.30671
0.4288	1.30165
0.4292	1.29617
0.4296	1.29027
0.43	1.28395
0.4304	1.27721
0.4308	1.27004
0.4312	1.26244
0.4316	1.2544
0.432	1.24594
0.4324	1.23704
0.4328	1.2277
0.4332	1.21793
0.4336	1.20771
0.434	1.19705
0.4344	1.18594
0.4348	1.17439
0.4352	1.16239
0.4356	1.14994
0.436	1.13704
0.4364	1.12369
0.4368	1.10988
0.4372	1.09562
0.4376	1.0809
0.438	1.06573
0.4384	1.05009
0.4388	1.034
0.4392	1.01745
0.4396	1.00044
0.44	0.982963
0.4404	0.965028
0.4408	0.946631
0.4412	0.927772
0.4416	0.908451
0.442	0.888668
0.4424	0.868422
0.4428	0.847714
0.4432	0.826544
0.4436	0.804913
0.444	0.782822
0.4444	0.76027
0.4448	0.737259
0.4452	0.71379
0.4456	0.689863
0.446	0.665481
0.4464	0.640643
0.4468	0.615353
0.4472	0.589611
0.4476	0.56342
0.448	0.53678
0.4484	0.509695
0.4488	0.482167
0.4492	0.454198
0.4496	0.42579
0.45	0.396946
0.4504	0.367669
0.4508	0.337962
0.4512	0.307828
0.4516	0.277271
0.452	0.246293
0.4524	0.214899
0.4528	0.183092
0.4532	0.150875
0.4536	0.118254
0.454	0.0852322
0.4544	0.0518137
0.4548	0.018003
0.4552	-0.0161951
0.4556	-0.0507761
0.456	-0.085735
0.4564	-0.121067
0.4568	-0.156767
0.4572	-0.192829
0.4576	-0.229249
0.458	-0.266021
0.4584	-0.303139
0.4588	-0.340598
0.4592	-0.378392
0.4596	-0.416515
0.46	-0.45496
0.4604	-0.493723
0.4608	-0.532797
0.4612	-0.572175
0.4616	-0.611852
0.462	-0.65182
0.4624	-0.692075
0.4628	-0.732608
0.4632	-0.773413
0.4636	-0.814485
0.464	-0.855815
0.4644	-0.897399
0.4648	-0.939227
0.4652	-0.981295
0.4656	-1.0236
0.466	-1.06612
0.4664	-1.10886
0.4668	-1.15182
0.4672	-1.19498
0.4676	-1.23834
0.468	-1.28189
0.4684	-1.32562
0.4688	-1.36953
0.4692	-1.41362
0.4696	-1.45786
0.47	-1.50227
0.4704	-1.54682
0.4708	-1.59152
0.4712	-1.63635
0.4716	-1.68132
0.472	-1.72641
0.4724	-1.77162
0.4728	-1.81693
0.4732	-1.86236
0.4736	-1.90788
0.474	-1.9535
0.4744	-1.9992
0.4748	-2.04498
0.4752	-2.09084
0.4756	-2.13677
0.476	-2.18276
0.4764	-2.22881
0.4768	-2.27491
0.4772	-2.32105
0.4776	-2.36724
0.478	-2.41347
0.4784	-2.45972
0.4788	-2.506
0.4792	-2.55231
0.4796	-2.59863
0.48	-2.64496
0.4804	-2.6913
0.4808	-2.73765
0.4812	-2.784
0.4816	-2.83034
0.482	-2.87667
0.4824	-2.92299
0.4828	-2.9693
0.4832	-3.01558
0.4836	-3.06185
0.484	-3.10809
0.4844	-3.1543
0.4848	-3.20048
0.4852	-3.24663
0.4856	-3.29274
0.486	-3.33881
0.4864	-3.38484
0.4868	-3.43083
0.4872	-3.47677
0.4876	-3.52267
0.488	-3.56851
0.4884	-3.61431
0.4888	-3.66006
0.4892	-3.70576
0.4896	-3.7514
0.49	-3.79698
0.4904	-3.84252
0.4908	-3.88799
0.4912	-3.93341
0.4916	-3.97878
0.492	-4.02408
0.4924	-4.06933
0.4928	-4.11453
0.4932	-4.15966
0.4936	-4.20474
0.494	-4.24976
0.4944	-4.29473
0.4948	-4.33964
0.4952	-4.3845
0.4956	-4.4293
0.496	-4.47405
0.4964	-4.51875
0.4968	-4.5634
0.4972	-4.608
0.4976	-4.65255
0.498	-4.69705
0.4984	-4.74151
0.4988	-4.78592
0.4992	-4.83029
0.4996	-4.87462
0.5	-4.91891
0.5004	-4.96317
0.5008	-5.00739
0.5012	-5.05157
0.5016	-5.09572
0.502	-5.13985
0.5024	-5.18394
0.5028	-5.22801
0.5032	-5.27205
0.5036	-5.31607
0.504	-5.36007
0.5044	-5.40406
0.5048	-5.44802
0.5052	-5.49198
0.5056	-5.53592
0.506	-5.57985
0.5064	-5.62377
0.5068	-5.66769
0.5072	-5.7116
0.5076	-5.75551
0.508	-5.79942
0.5084	-5.84333
0.5088	-5.88724
0.5092	-5.93116
0.5096	-5.97509
0.51	-6.01902
0.5104	-6.06296
0.5108	-6.10692
