# Gnuplot File : external energy of the system 
# 1st Column : time, 2nd : external energy
0.0004	0.016086
0.0008	0.0199776
0.0012	0.0359534
0.0016	0.0556414
0.002	0.0754774
0.0024	0.0951345
0.0028	0.114984
0.0032	0.135197
0.0036	0.15577
0.004	0.176673
0.0044	0.197894
0.0048	0.219434
0.0052	0.241294
0.0056	0.263474
0.006	0.285972
0.0064	0.308788
0.0068	0.33192
0.0072	0.355368
0.0076	0.379129
0.008	0.403203
0.0084	0.427588
0.0088	0.452283
0.0092	0.477285
0.0096	0.502592
0.01	0.528202
0.0104	0.554111
0.0108	0.580317
0.0112	0.606814
0.0116	0.6336
0.012	0.660668
0.0124	0.688013
0.0128	0.715628
0.0132	0.743505
0.0136	0.771636
0.014	0.800012
0.0144	0.828621
0.0148	0.857452
0.0152	0.886492
0.0156	0.915726
0.016	0.945138
0.0164	0.974713
0.0168	1.00443
0.0172	1.03428
0.0176	1.06422
0.018	1.09425
0.0184	1.12435
0.0188	1.15448
0.0192	1.18463
0.0196	1.21477
0.02	1.24488
0.0204	1.27493
0.0208	1.30491
0.0212	1.33479
0.0216	1.36455
0.022	1.39417
0.0224	1.42362
0.0228	1.4529
0.0232	1.48197
0.0236	1.51082
0.024	1.53944
0.0244	1.56781
0.0248	1.59592
0.0252	1.62374
0.0256	1.65128
0.026	1.67852
0.0264	1.70545
0.0268	1.73206
0.0272	1.75834
0.0276	1.7843
0.028	1.80992
0.0284	1.83521
0.0288	1.86016
0.0292	1.88478
0.0296	1.90908
0.03	1.93306
0.0304	1.95673
0.0308	1.9801
0.0312	2.0032
0.0316	2.02604
0.032	2.04864
0.0324	2.07103
0.0328	2.09325
0.0332	2.11531
0.0336	2.13727
0.034	2.15915
0.0344	2.18101
0.0348	2.20288
0.0352	2.22481
0.0356	2.24685
0.036	2.26905
0.0364	2.29145
0.0368	2.31411
0.0372	2.33708
0.0376	2.3604
0.038	2.38411
0.0384	2.40827
0.0388	2.4329
0.0392	2.45805
0.0396	2.48374
0.04	2.51001
0.0404	2.53687
0.0408	2.56435
0.0412	2.59246
0.0416	2.6212
0.042	2.65058
0.0424	2.68061
0.0428	2.71127
0.0432	2.74256
0.0436	2.77447
0.044	2.80699
0.0444	2.8401
0.0448	2.87377
0.0452	2.908
0.0456	2.94276
0.046	2.97802
0.0464	3.01377
0.0468	3.04998
0.0472	3.08663
0.0476	3.12368
0.048	3.16112
0.0484	3.19892
0.0488	3.23705
0.0492	3.27549
0.0496	3.31421
0.05	3.35319
0.0504	3.39239
0.0508	3.4318
0.0512	3.47137
0.0516	3.51109
0.052	3.55093
0.0524	3.59085
0.0528	3.63083
0.0532	3.67085
0.0536	3.71086
0.054	3.75084
0.0544	3.79077
0.0548	3.8306
0.0552	3.87032
0.0556	3.90988
0.056	3.94927
0.0564	3.98845
0.0568	4.0274
0.0572	4.06609
0.0576	4.10448
0.058	4.14257
0.0584	4.18031
0.0588	4.21768
0.0592	4.25467
0.0596	4.29125
0.06	4.3274
0.0604	4.3631
0.0608	4.39834
0.0612	4.4331
0.0616	4.46737
0.062	4.50113
0.0624	4.53438
0.0628	4.56711
0.0632	4.59931
0.0636	4.63099
0.064	4.66212
0.0644	4.69273
0.0648	4.7228
0.0652	4.75235
0.0656	4.78138
0.066	4.80989
0.0664	4.8379
0.0668	4.86542
0.0672	4.89246
0.0676	4.91904
0.068	4.94517
0.0684	4.97086
0.0688	4.99615
0.0692	5.02104
0.0696	5.04555
0.07	5.06971
0.0704	5.09354
0.0708	5.11705
0.0712	5.14027
0.0716	5.16321
0.072	5.18591
0.0724	5.20836
0.0728	5.2306
0.0732	5.25264
0.0736	5.2745
0.074	5.29618
0.0744	5.3177
0.0748	5.33906
0.0752	5.36029
0.0756	5.38137
0.076	5.40232
0.0764	5.42313
0.0768	5.44381
0.0772	5.46434
0.0776	5.48473
0.078	5.50495
0.0784	5.52502
0.0788	5.5449
0.0792	5.56458
0.0796	5.58405
0.08	5.6033
0.0804	5.62228
0.0808	5.641
0.0812	5.65941
0.0816	5.67751
0.082	5.69526
0.0824	5.71263
0.0828	5.72961
0.0832	5.74616
0.0836	5.76225
0.084	5.77786
0.0844	5.79296
0.0848	5.80752
0.0852	5.82152
0.0856	5.83492
0.086	5.84769
0.0864	5.85982
0.0868	5.87127
0.0872	5.88202
0.0876	5.89204
0.088	5.90131
0.0884	5.9098
0.0888	5.91749
0.0892	5.92435
0.0896	5.93037
0.09	5.93552
0.0904	5.93978
0.0908	5.94313
0.0912	5.94555
0.0916	5.94703
0.092	5.94755
0.0924	5.94709
0.0928	5.94564
0.0932	5.94318
0.0936	5.93971
0.094	5.93522
0.0944	5.92969
0.0948	5.92312
0.0952	5.91551
0.0956	5.90685
0.096	5.89714
0.0964	5.88637
0.0968	5.87455
0.0972	5.86169
0.0976	5.84778
0.098	5.83284
0.0984	5.81687
0.0988	5.79987
0.0992	5.78188
0.0996	5.76288
0.1	5.74291
0.1004	5.72197
0.1008	5.70009
0.1012	5.67728
0.1016	5.65356
0.102	5.62895
0.1024	5.60348
0.1028	5.57717
0.1032	5.55004
0.1036	5.52212
0.104	5.49342
0.1044	5.46399
0.1048	5.43383
0.1052	5.40299
0.1056	5.37147
0.106	5.33932
0.1064	5.30655
0.1068	5.27318
0.1072	5.23925
0.1076	5.20477
0.108	5.16977
0.1084	5.13427
0.1088	5.09829
0.1092	5.06185
0.1096	5.02496
0.11	4.98764
0.1104	4.94992
0.1108	4.91179
0.1112	4.87328
0.1116	4.83439
0.112	4.79513
0.1124	4.75552
0.1128	4.71556
0.1132	4.67524
0.1136	4.63459
0.114	4.59359
0.1144	4.55225
0.1148	4.51057
0.1152	4.46855
0.1156	4.42617
0.116	4.38345
0.1164	4.34038
0.1168	4.29694
0.1172	4.25313
0.1176	4.20895
0.118	4.16439
0.1184	4.11944
0.1188	4.07409
0.1192	4.02833
0.1196	3.98216
0.12	3.93557
0.1204	3.88854
0.1208	3.84108
0.1212	3.79316
0.1216	3.74479
0.122	3.69596
0.1224	3.64666
0.1228	3.59688
0.1232	3.54662
0.1236	3.49588
0.124	3.44464
0.1244	3.39291
0.1248	3.34069
0.1252	3.28797
0.1256	3.23475
0.126	3.18104
0.1264	3.12682
0.1268	3.07212
0.1272	3.01693
0.1276	2.96125
0.128	2.90509
0.1284	2.84846
0.1288	2.79136
0.1292	2.73381
0.1296	2.67581
0.13	2.61738
0.1304	2.55853
0.1308	2.49927
0.1312	2.43962
0.1316	2.37959
0.132	2.3192
0.1324	2.25847
0.1328	2.19742
0.1332	2.13606
0.1336	2.07443
0.134	2.01253
0.1344	1.9504
0.1348	1.88806
0.1352	1.82554
0.1356	1.76285
0.136	1.70002
0.1364	1.63708
0.1368	1.57407
0.1372	1.51099
0.1376	1.44789
0.138	1.38478
0.1384	1.3217
0.1388	1.25867
0.1392	1.19573
0.1396	1.13289
0.14	1.07018
0.1404	1.00764
0.1408	0.945278
0.1412	0.883129
0.1416	0.821214
0.142	0.759558
0.1424	0.698182
0.1428	0.637107
0.1432	0.576355
0.1436	0.515943
0.144	0.455891
0.1444	0.396214
0.1448	0.336929
0.1452	0.278049
0.1456	0.219587
0.146	0.161554
0.1464	0.103961
0.1468	0.0468153
0.1472	-0.0098751
0.1476	-0.0661046
0.148	-0.121869
0.1484	-0.177165
0.1488	-0.23199
0.1492	-0.286345
0.1496	-0.340229
0.15	-0.393645
0.1504	-0.446595
0.1508	-0.499083
0.1512	-0.551115
0.1516	-0.602695
0.152	-0.653831
0.1524	-0.704529
0.1528	-0.754797
0.1532	-0.804645
0.1536	-0.85408
0.154	-0.903112
0.1544	-0.95175
0.1548	-1.00001
0.1552	-1.04789
0.1556	-1.09541
0.156	-1.14257
0.1564	-1.18939
0.1568	-1.23588
0.1572	-1.28204
0.1576	-1.32789
0.158	-1.37343
0.1584	-1.41868
0.1588	-1.46364
0.1592	-1.50831
0.1596	-1.55271
0.16	-1.59685
0.1604	-1.64072
0.1608	-1.68433
0.1612	-1.7277
0.1616	-1.77081
0.162	-1.81368
0.1624	-1.8563
0.1628	-1.89869
0.1632	-1.94083
0.1636	-1.98273
0.164	-2.02439
0.1644	-2.0658
0.1648	-2.10697
0.1652	-2.1479
0.1656	-2.18856
0.166	-2.22898
0.1664	-2.26913
0.1668	-2.30901
0.1672	-2.34861
0.1676	-2.38794
0.168	-2.42697
0.1684	-2.46571
0.1688	-2.50414
0.1692	-2.54226
0.1696	-2.58005
0.17	-2.61751
0.1704	-2.65462
0.1708	-2.69138
0.1712	-2.72777
0.1716	-2.76379
0.172	-2.79943
0.1724	-2.83466
0.1728	-2.8695
0.1732	-2.90391
0.1736	-2.9379
0.174	-2.97146
0.1744	-3.00457
0.1748	-3.03724
0.1752	-3.06944
0.1756	-3.10117
0.176	-3.13244
0.1764	-3.16322
0.1768	-3.19352
0.1772	-3.22333
0.1776	-3.25265
0.178	-3.28147
0.1784	-3.3098
0.1788	-3.33764
0.1792	-3.36497
0.1796	-3.39182
0.18	-3.41817
0.1804	-3.44403
0.1808	-3.46941
0.1812	-3.49431
0.1816	-3.51874
0.182	-3.5427
0.1824	-3.56621
0.1828	-3.58927
0.1832	-3.6119
0.1836	-3.6341
0.184	-3.65589
0.1844	-3.67729
0.1848	-3.69829
0.1852	-3.71893
0.1856	-3.73921
0.186	-3.75915
0.1864	-3.77877
0.1868	-3.79808
0.1872	-3.8171
0.1876	-3.83585
0.188	-3.85434
0.1884	-3.8726
0.1888	-3.89064
0.1892	-3.90847
0.1896	-3.92613
0.19	-3.94361
0.1904	-3.96095
0.1908	-3.97816
0.1912	-3.99526
0.1916	-4.01226
0.192	-4.02918
0.1924	-4.04604
0.1928	-4.06285
0.1932	-4.07962
0.1936	-4.09637
0.194	-4.11312
0.1944	-4.12988
0.1948	-4.14665
0.1952	-4.16346
0.1956	-4.1803
0.196	-4.1972
0.1964	-4.21415
0.1968	-4.23117
0.1972	-4.24827
0.1976	-4.26545
0.198	-4.28271
0.1984	-4.30007
0.1988	-4.31752
0.1992	-4.33507
0.1996	-4.35272
0.2	-4.37047
0.2004	-4.38833
0.2008	-4.40628
0.2012	-4.42434
0.2016	-4.4425
0.202	-4.46075
0.2024	-4.47909
0.2028	-4.49753
0.2032	-4.51605
0.2036	-4.53465
0.204	-4.55333
0.2044	-4.57208
0.2048	-4.59089
0.2052	-4.60976
0.2056	-4.62867
0.206	-4.64764
0.2064	-4.66664
0.2068	-4.68566
0.2072	-4.70471
0.2076	-4.72378
0.208	-4.74285
0.2084	-4.76192
0.2088	-4.78098
0.2092	-4.80003
0.2096	-4.81906
0.21	-4.83806
0.2104	-4.85702
0.2108	-4.87595
0.2112	-4.89483
0.2116	-4.91366
0.212	-4.93244
0.2124	-4.95115
0.2128	-4.96981
0.2132	-4.9884
0.2136	-5.00692
0.214	-5.02537
0.2144	-5.04375
0.2148	-5.06206
0.2152	-5.08029
0.2156	-5.09845
0.216	-5.11655
0.2164	-5.13457
0.2168	-5.15252
0.2172	-5.17041
0.2176	-5.18824
0.218	-5.20601
0.2184	-5.22372
0.2188	-5.24139
0.2192	-5.259
0.2196	-5.27658
0.22	-5.29413
0.2204	-5.31164
0.2208	-5.32913
0.2212	-5.3466
0.2216	-5.36406
0.222	-5.38152
0.2224	-5.39897
0.2228	-5.41643
0.2232	-5.43391
0.2236	-5.4514
0.224	-5.46892
0.2244	-5.48647
0.2248	-5.50405
0.2252	-5.52168
0.2256	-5.53935
0.226	-5.55706
0.2264	-5.57483
0.2268	-5.59265
0.2272	-5.61053
0.2276	-5.62847
0.228	-5.64647
0.2284	-5.66454
0.2288	-5.68266
0.2292	-5.70084
0.2296	-5.71909
0.23	-5.73739
0.2304	-5.75574
0.2308	-5.77415
0.2312	-5.7926
0.2316	-5.8111
0.232	-5.82963
0.2324	-5.84819
0.2328	-5.86677
0.2332	-5.88536
0.2336	-5.90396
0.234	-5.92256
0.2344	-5.94114
0.2348	-5.9597
0.2352	-5.97822
0.2356	-5.99669
0.236	-6.0151
0.2364	-6.03344
0.2368	-6.05169
0.2372	-6.06984
0.2376	-6.08788
0.238	-6.10578
0.2384	-6.12354
0.2388	-6.14114
0.2392	-6.15857
0.2396	-6.1758
0.24	-6.19283
0.2404	-6.20964
0.2408	-6.2262
0.2412	-6.24251
0.2416	-6.25855
0.242	-6.27431
0.2424	-6.28976
0.2428	-6.3049
0.2432	-6.3197
0.2436	-6.33415
0.244	-6.34825
0.2444	-6.36196
0.2448	-6.37529
0.2452	-6.38821
0.2456	-6.40072
0.246	-6.4128
0.2464	-6.42443
0.2468	-6.43561
0.2472	-6.44633
0.2476	-6.45658
0.248	-6.46634
0.2484	-6.47561
0.2488	-6.48437
0.2492	-6.49263
0.2496	-6.50037
0.25	-6.50759
0.2504	-6.51428
0.2508	-6.52043
0.2512	-6.52605
0.2516	-6.53112
0.252	-6.53564
0.2524	-6.53961
0.2528	-6.54303
0.2532	-6.5459
0.2536	-6.5482
0.254	-6.54995
0.2544	-6.55114
0.2548	-6.55177
0.2552	-6.55184
0.2556	-6.55136
0.256	-6.55031
0.2564	-6.54871
0.2568	-6.54655
0.2572	-6.54384
0.2576	-6.54057
0.258	-6.53675
0.2584	-6.53238
0.2588	-6.52746
0.2592	-6.522
0.2596	-6.51599
0.26	-6.50943
0.2604	-6.50234
0.2608	-6.4947
0.2612	-6.48652
0.2616	-6.47781
0.262	-6.46855
0.2624	-6.45876
0.2628	-6.44843
0.2632	-6.43756
0.2636	-6.42616
0.264	-6.41421
0.2644	-6.40173
0.2648	-6.3887
0.2652	-6.37514
0.2656	-6.36102
0.266	-6.34636
0.2664	-6.33115
0.2668	-6.31539
0.2672	-6.29907
0.2676	-6.28219
0.268	-6.26475
0.2684	-6.24674
0.2688	-6.22816
0.2692	-6.20899
0.2696	-6.18925
0.27	-6.16892
0.2704	-6.148
0.2708	-6.12647
0.2712	-6.10435
0.2716	-6.08161
0.272	-6.05826
0.2724	-6.03429
0.2728	-6.00969
0.2732	-5.98445
0.2736	-5.95858
0.274	-5.93206
0.2744	-5.90489
0.2748	-5.87707
0.2752	-5.84859
0.2756	-5.81944
0.276	-5.78962
0.2764	-5.75913
0.2768	-5.72796
0.2772	-5.69611
0.2776	-5.66357
0.278	-5.63035
0.2784	-5.59643
0.2788	-5.56183
0.2792	-5.52653
0.2796	-5.49054
0.28	-5.45386
0.2804	-5.41649
0.2808	-5.37842
0.2812	-5.33966
0.2816	-5.30022
0.282	-5.26009
0.2824	-5.21928
0.2828	-5.17779
0.2832	-5.13563
0.2836	-5.09281
0.284	-5.04932
0.2844	-5.00518
0.2848	-4.96039
0.2852	-4.91496
0.2856	-4.8689
0.286	-4.82222
0.2864	-4.77493
0.2868	-4.72703
0.2872	-4.67855
0.2876	-4.62948
0.288	-4.57984
0.2884	-4.52965
0.2888	-4.47891
0.2892	-4.42764
0.2896	-4.37586
0.29	-4.32356
0.2904	-4.27078
0.2908	-4.21751
0.2912	-4.16378
0.2916	-4.1096
0.292	-4.05499
0.2924	-3.99996
0.2928	-3.94451
0.2932	-3.88868
0.2936	-3.83247
0.294	-3.7759
0.2944	-3.71897
0.2948	-3.66171
0.2952	-3.60414
0.2956	-3.54625
0.296	-3.48808
0.2964	-3.42962
0.2968	-3.3709
0.2972	-3.31193
0.2976	-3.25272
0.298	-3.19328
0.2984	-3.13362
0.2988	-3.07377
0.2992	-3.01372
0.2996	-2.95349
0.3	-2.8931
0.3004	-2.83254
0.3008	-2.77184
0.3012	-2.711
0.3016	-2.65004
0.302	-2.58895
0.3024	-2.52775
0.3028	-2.46645
0.3032	-2.40506
0.3036	-2.34358
0.304	-2.28202
0.3044	-2.2204
0.3048	-2.15871
0.3052	-2.09696
0.3056	-2.03516
0.306	-1.97332
0.3064	-1.91144
0.3068	-1.84953
0.3072	-1.78759
0.3076	-1.72563
0.308	-1.66366
0.3084	-1.60168
0.3088	-1.5397
0.3092	-1.47772
0.3096	-1.41575
0.31	-1.35379
0.3104	-1.29186
0.3108	-1.22994
0.3112	-1.16806
0.3116	-1.10622
0.312	-1.04441
0.3124	-0.982661
0.3128	-0.920964
0.3132	-0.859329
0.3136	-0.797763
0.314	-0.736273
0.3144	-0.674866
0.3148	-0.61355
0.3152	-0.552332
0.3156	-0.49122
0.316	-0.430223
0.3164	-0.369349
0.3168	-0.308607
0.3172	-0.248005
0.3176	-0.187553
0.318	-0.127261
0.3184	-0.0671383
0.3188	-0.00719459
0.3192	0.0525597
0.3196	0.112114
0.32	0.171458
0.3204	0.23058
0.3208	0.289471
0.3212	0.348117
0.3216	0.406509
0.322	0.464635
0.3224	0.522483
0.3228	0.580042
0.3232	0.6373
0.3236	0.694246
0.324	0.750868
0.3244	0.807155
0.3248	0.863094
0.3252	0.918675
0.3256	0.973887
0.326	1.02872
0.3264	1.08316
0.3268	1.13719
0.3272	1.19081
0.3276	1.24401
0.328	1.29678
0.3284	1.3491
0.3288	1.40097
0.3292	1.45238
0.3296	1.50332
0.33	1.55377
0.3304	1.60375
0.3308	1.65322
0.3312	1.7022
0.3316	1.75067
0.332	1.79862
0.3324	1.84605
0.3328	1.89296
0.3332	1.93934
0.3336	1.98518
0.334	2.03049
0.3344	2.07525
0.3348	2.11947
0.3352	2.16315
0.3356	2.20627
0.336	2.24885
0.3364	2.29087
0.3368	2.33235
0.3372	2.37327
0.3376	2.41365
0.338	2.45347
0.3384	2.49275
0.3388	2.53148
0.3392	2.56967
0.3396	2.60732
0.34	2.64443
0.3404	2.681
0.3408	2.71704
0.3412	2.75256
0.3416	2.78755
0.342	2.82202
0.3424	2.85597
0.3428	2.88942
0.3432	2.92236
0.3436	2.9548
0.344	2.98674
0.3444	3.0182
0.3448	3.04917
0.3452	3.07966
0.3456	3.10967
0.346	3.13922
0.3464	3.1683
0.3468	3.19692
0.3472	3.2251
0.3476	3.25282
0.348	3.2801
0.3484	3.30694
0.3488	3.33335
0.3492	3.35933
0.3496	3.38489
0.35	3.41003
0.3504	3.43476
0.3508	3.45907
0.3512	3.48298
0.3516	3.50649
0.352	3.52959
0.3524	3.5523
0.3528	3.57463
0.3532	3.59656
0.3536	3.6181
0.354	3.63927
0.3544	3.66005
0.3548	3.68045
0.3552	3.70048
0.3556	3.72014
0.356	3.73943
0.3564	3.75835
0.3568	3.7769
0.3572	3.79509
0.3576	3.81292
0.358	3.83038
0.3584	3.84749
0.3588	3.86424
0.3592	3.88064
0.3596	3.89668
0.36	3.91237
0.3604	3.92772
0.3608	3.94271
0.3612	3.95736
0.3616	3.97167
0.362	3.98564
0.3624	3.99927
0.3628	4.01256
0.3632	4.02552
0.3636	4.03815
0.364	4.05046
0.3644	4.06244
0.3648	4.0741
0.3652	4.08545
0.3656	4.09648
0.366	4.10721
0.3664	4.11763
0.3668	4.12776
0.3672	4.13759
0.3676	4.14713
0.368	4.15639
0.3684	4.16537
0.3688	4.17408
0.3692	4.18252
0.3696	4.19071
0.37	4.19864
0.3704	4.20633
0.3708	4.21377
0.3712	4.22098
0.3716	4.22797
0.372	4.23474
0.3724	4.24131
0.3728	4.24767
0.3732	4.25383
0.3736	4.25981
0.374	4.26561
0.3744	4.27124
0.3748	4.27671
0.3752	4.28202
0.3756	4.28719
0.376	4.29222
0.3764	4.29712
0.3768	4.30189
0.3772	4.30656
0.3776	4.31112
0.378	4.31558
0.3784	4.31995
0.3788	4.32424
0.3792	4.32845
0.3796	4.33259
0.38	4.33667
0.3804	4.3407
0.3808	4.34468
0.3812	4.34862
0.3816	4.35251
0.382	4.35638
0.3824	4.36023
0.3828	4.36405
0.3832	4.36785
0.3836	4.37165
0.384	4.37544
0.3844	4.37922
0.3848	4.383
0.3852	4.38679
0.3856	4.39058
0.386	4.39438
0.3864	4.39819
0.3868	4.40201
0.3872	4.40584
0.3876	4.40968
0.388	4.41354
0.3884	4.41741
0.3888	4.4213
0.3892	4.4252
0.3896	4.42911
0.39	4.43303
0.3904	4.43697
0.3908	4.44091
0.3912	4.44486
0.3916	4.44882
0.392	4.45277
0.3924	4.45673
0.3928	4.46069
0.3932	4.46464
0.3936	4.46858
0.394	4.4725
0.3944	4.47642
0.3948	4.48031
0.3952	4.48418
0.3956	4.48803
0.396	4.49184
0.3964	4.49562
0.3968	4.49936
0.3972	4.50306
0.3976	4.50672
0.398	4.51032
0.3984	4.51387
0.3988	4.51736
0.3992	4.52079
0.3996	4.52416
0.4	4.52745
0.4004	4.53067
0.4008	4.53381
0.4012	4.53688
0.4016	4.53985
0.402	4.54274
0.4024	4.54554
0.4028	4.54824
0.4032	4.55085
0.4036	4.55335
0.404	4.55575
0.4044	4.55804
0.4048	4.56021
0.4052	4.56228
0.4056	4.56423
0.406	4.56606
0.4064	4.56777
0.4068	4.56935
0.4072	4.5708
0.4076	4.57213
0.408	4.57332
0.4084	4.57438
0.4088	4.5753
0.4092	4.57608
0.4096	4.57672
0.41	4.57721
0.4104	4.57756
0.4108	4.57775
0.4112	4.57779
0.4116	4.57768
0.412	4.5774
0.4124	4.57697
0.4128	4.57636
0.4132	4.57559
0.4136	4.57465
0.414	4.57354
0.4144	4.57224
0.4148	4.57077
0.4152	4.5691
0.4156	4.56725
0.416	4.5652
0.4164	4.56295
0.4168	4.5605
0.4172	4.55784
0.4176	4.55497
0.418	4.55188
0.4184	4.54857
0.4188	4.54502
0.4192	4.54124
0.4196	4.53722
0.42	4.53296
0.4204	4.52844
0.4208	4.52366
0.4212	4.51861
0.4216	4.51329
0.422	4.50769
0.4224	4.50181
0.4228	4.49563
0.4232	4.48915
0.4236	4.48236
0.424	4.47525
0.4244	4.46782
0.4248	4.46006
0.4252	4.45196
0.4256	4.44351
0.426	4.4347
0.4264	4.42554
0.4268	4.416
0.4272	4.40609
0.4276	4.39578
0.428	4.38509
0.4284	4.37399
0.4288	4.36248
0.4292	4.35056
0.4296	4.33821
0.43	4.32543
0.4304	4.31221
0.4308	4.29855
0.4312	4.28443
0.4316	4.26986
0.432	4.25481
0.4324	4.2393
0.4328	4.22331
0.4332	4.20683
0.4336	4.18986
0.434	4.1724
0.4344	4.15444
0.4348	4.13597
0.4352	4.117
0.4356	4.0975
0.436	4.0775
0.4364	4.05696
0.4368	4.03591
0.4372	4.01432
0.4376	3.99221
0.438	3.96956
0.4384	3.94637
0.4388	3.92264
0.4392	3.89838
0.4396	3.87357
0.44	3.84822
0.4404	3.82232
0.4408	3.79588
0.4412	3.7689
0.4416	3.74137
0.442	3.71329
0.4424	3.68467
0.4428	3.65551
0.4432	3.6258
0.4436	3.59554
0.444	3.56475
0.4444	3.53342
0.4448	3.50155
0.4452	3.46914
0.4456	3.43619
0.446	3.40272
0.4464	3.36871
0.4468	3.33417
0.4472	3.29911
0.4476	3.26352
0.448	3.22742
0.4484	3.19079
0.4488	3.15365
0.4492	3.116
0.4496	3.07784
0.45	3.03917
0.4504	3
0.4508	2.96033
0.4512	2.92016
0.4516	2.8795
0.452	2.83835
0.4524	2.79671
0.4528	2.75459
0.4532	2.71199
0.4536	2.66891
0.454	2.62536
0.4544	2.58134
0.4548	2.53685
0.4552	2.4919
0.4556	2.44649
0.456	2.40062
0.4564	2.3543
0.4568	2.30754
0.4572	2.26032
0.4576	2.21267
0.458	2.16458
0.4584	2.11606
0.4588	2.0671
0.4592	2.01773
0.4596	1.96792
0.46	1.91771
0.4604	1.86707
0.4608	1.81603
0.4612	1.76459
0.4616	1.71274
0.462	1.6605
0.4624	1.60787
0.4628	1.55485
0.4632	1.50145
0.4636	1.44768
0.464	1.39354
0.4644	1.33903
0.4648	1.28416
0.4652	1.22894
0.4656	1.17338
0.466	1.11747
0.4664	1.06123
0.4668	1.00466
0.4672	0.947771
0.4676	0.890569
0.468	0.833061
0.4684	0.775254
0.4688	0.717157
0.4692	0.658777
0.4696	0.600122
0.47	0.541201
0.4704	0.482022
0.4708	0.422595
0.4712	0.362928
0.4716	0.30303
0.472	0.242911
0.4724	0.18258
0.4728	0.122048
0.4732	0.0613246
0.4736	0.000419338
0.474	-0.0606571
0.4744	-0.121894
0.4748	-0.183281
0.4752	-0.244807
0.4756	-0.306461
0.476	-0.368233
0.4764	-0.43011
0.4768	-0.492082
0.4772	-0.554138
0.4776	-0.616265
0.478	-0.678453
0.4784	-0.740689
0.4788	-0.802962
0.4792	-0.865261
0.4796	-0.927574
0.48	-0.989889
0.4804	-1.05219
0.4808	-1.11448
0.4812	-1.17673
0.4816	-1.23894
0.482	-1.30109
0.4824	-1.36317
0.4828	-1.42518
0.4832	-1.48709
0.4836	-1.5489
0.484	-1.61061
0.4844	-1.67218
0.4848	-1.73363
0.4852	-1.79493
0.4856	-1.85607
0.486	-1.91705
0.4864	-1.97785
0.4868	-2.03846
0.4872	-2.09888
0.4876	-2.15909
0.488	-2.21908
0.4884	-2.27885
0.4888	-2.33839
0.4892	-2.39768
0.4896	-2.45672
0.49	-2.51549
0.4904	-2.574
0.4908	-2.63222
0.4912	-2.69016
0.4916	-2.74781
0.492	-2.80515
0.4924	-2.86219
0.4928	-2.9189
0.4932	-2.97529
0.4936	-3.03134
0.494	-3.08706
0.4944	-3.14243
0.4948	-3.19745
0.4952	-3.2521
0.4956	-3.30639
0.496	-3.36031
0.4964	-3.41385
0.4968	-3.467
0.4972	-3.51976
0.4976	-3.57212
0.498	-3.62409
0.4984	-3.67564
0.4988	-3.72678
0.4992	-3.7775
0.4996	-3.8278
0.5	-3.87766
0.5004	-3.92709
0.5008	-3.97608
0.5012	-4.02463
0.5016	-4.07272
0.502	-4.12036
0.5024	-4.16754
0.5028	-4.21425
0.5032	-4.26049
0.5036	-4.30626
0.504	-4.35155
0.5044	-4.39636
0.5048	-4.44068
0.5052	-4.4845
0.5056	-4.52783
0.506	-4.57065
0.5064	-4.61297
0.5068	-4.65478
0.5072	-4.69608
0.5076	-4.73685
0.508	-4.77711
0.5084	-4.81684
0.5088	-4.85604
0.5092	-4.8947
0.5096	-4.93283
0.51	-4.97041
0.5104	-5.00745
0.5108	-5.04394
0.5112	-5.07989
0.5116	-5.11527
0.512	-5.1501
0.5124	-5.18437
0.5128	-5.21808
0.5132	-5.25122
0.5136	-5.2838
0.514	-5.3158
0.5144	-5.34723
0.5148	-5.37809
0.5152	-5.40837
0.5156	-5.43808
0.516	-5.4672
0.5164	-5.49575
0.5168	-5.52372
0.5172	-5.5511
0.5176	-5.57791
0.518	-5.60413
0.5184	-5.62977
0.5188	-5.65483
0.5192	-5.67931
0.5196	-5.70321
0.52	-5.72652
0.5204	-5.74926
0.5208	-5.77142
0.5212	-5.79301
0.5216	-5.81402
0.522	-5.83446
0.5224	-5.85433
0.5228	-5.87363
0.5232	-5.89237
0.5236	-5.91055
0.524	-5.92817
0.5244	-5.94523
